Date,HIGH,LOW,CLOSE,OPEN,COUNT,VOLUME
1996-05-16,101.0,101.0,101.0,101.0,0.0,0.0
1996-05-17,101.0,101.0,101.0,101.0,0.0,0.0
1996-05-20,101.0,101.0,101.0,101.0,0.0,0.0
1996-05-21,101.0,101.0,101.0,101.0,0.0,0.0
1996-05-22,101.0,101.0,101.0,101.0,0.0,0.0
1996-05-23,101.0,101.0,101.0,101.0,0.0,0.0
1996-05-24,101.0,101.0,101.0,101.0,0.0,0.0
1996-05-27,101.0,101.0,101.0,101.0,0.0,0.0
1996-05-28,101.0,101.0,101.0,101.0,0.0,0.0
1996-05-29,101.0,101.0,101.0,101.0,0.0,0.0
1996-05-30,101.0,101.0,101.0,101.0,0.0,0.0
1996-05-31,101.0,101.0,101.0,101.0,0.0,0.0
1996-06-03,101.0,101.0,101.0,101.0,0.0,0.0
1996-06-04,101.0,101.0,101.0,101.0,0.0,0.0
1996-06-05,101.0,101.0,101.0,101.0,0.0,0.0
1996-06-06,101.0,101.0,101.0,101.0,0.0,0.0
1996-06-07,101.0,101.0,101.0,101.0,0.0,0.0
1996-06-10,101.0,101.0,101.0,101.0,0.0,0.0
1996-06-11,101.0,101.0,101.0,101.0,0.0,0.0
1996-06-12,101.0,101.0,101.0,101.0,0.0,0.0
1996-06-13,101.0,101.0,101.0,101.0,0.0,0.0
1996-06-14,101.0,101.0,101.0,101.0,0.0,0.0
1996-06-17,101.0,101.0,101.0,101.0,0.0,0.0
1996-06-18,101.0,101.0,101.0,101.0,0.0,0.0
1996-06-19,101.0,101.0,101.0,101.0,0.0,0.0
1996-06-20,101.0,101.0,101.0,101.0,0.0,0.0
1996-06-21,101.0,101.0,101.0,101.0,0.0,0.0
1996-06-24,101.0,101.0,101.0,101.0,0.0,0.0
1996-06-25,101.0,101.0,101.0,101.0,0.0,0.0
1996-06-26,101.0,101.0,101.0,101.0,0.0,0.0
1996-06-27,101.0,101.0,101.0,101.0,0.0,0.0
1996-06-28,101.0,101.0,101.0,101.0,0.0,0.0
1996-07-01,101.0,101.0,101.0,101.0,0.0,0.0
1996-07-02,101.0,101.0,101.0,101.0,0.0,0.0
1996-07-03,101.0,101.0,101.0,101.0,0.0,0.0
1996-07-04,101.0,101.0,101.0,101.0,0.0,0.0
1996-07-05,101.0,101.0,101.0,101.0,0.0,0.0
1996-07-08,101.0,101.0,101.0,101.0,0.0,0.0
1996-07-09,101.0,101.0,101.0,101.0,0.0,0.0
1996-07-10,101.0,101.0,101.0,101.0,0.0,0.0
1996-07-11,101.0,101.0,101.0,101.0,0.0,0.0
1996-07-12,101.0,101.0,101.0,101.0,0.0,0.0
1996-07-15,101.0,101.0,101.0,101.0,0.0,0.0
1996-07-16,100.0,100.0,100.0,100.0,0.0,1.0
1996-07-17,100.0,100.0,100.0,100.0,0.0,0.0
1996-07-18,100.0,100.0,100.0,100.0,0.0,0.0
1996-07-19,100.0,100.0,100.0,100.0,0.0,0.0
1996-07-22,100.0,100.0,100.0,100.0,0.0,0.0
1996-07-23,100.0,100.0,100.0,100.0,0.0,0.0
1996-07-24,100.0,100.0,100.0,100.0,0.0,0.0
1996-07-25,100.0,100.0,100.0,100.0,0.0,0.0
1996-07-26,100.0,100.0,100.0,100.0,0.0,0.0
1996-07-29,100.0,100.0,100.0,100.0,0.0,0.0
1996-07-30,100.0,100.0,100.0,100.0,0.0,0.0
1996-07-31,100.0,100.0,100.0,100.0,0.0,0.0
1996-08-01,100.0,100.0,100.0,100.0,0.0,0.0
1996-08-02,100.0,100.0,100.0,100.0,0.0,0.0
1996-08-05,100.0,100.0,100.0,100.0,0.0,0.0
1996-08-06,100.0,100.0,100.0,100.0,0.0,0.0
1996-08-07,100.0,100.0,100.0,100.0,0.0,0.0
1996-08-08,100.0,100.0,100.0,100.0,0.0,0.0
1996-08-09,100.0,100.0,100.0,100.0,0.0,0.0
1996-08-12,100.0,100.0,100.0,100.0,0.0,0.0
1996-08-13,100.0,100.0,100.0,100.0,0.0,0.0
1996-08-14,100.0,100.0,100.0,100.0,0.0,0.0
1996-08-15,100.0,100.0,100.0,100.0,0.0,0.0
1996-08-16,100.0,100.0,100.0,100.0,0.0,0.0
1996-08-19,100.0,100.0,100.0,100.0,0.0,0.0
1996-08-20,99.0,99.0,99.0,99.0,0.0,1.0
1996-08-21,99.0,99.0,99.0,99.0,0.0,0.0
1996-08-22,99.0,99.0,99.0,99.0,0.0,0.0
1996-08-23,99.0,99.0,99.0,99.0,0.0,0.0
1996-08-26,99.0,99.0,99.0,99.0,0.0,0.0
1996-08-27,99.0,99.0,99.0,99.0,0.0,0.0
1996-08-28,98.0,98.0,99.0,98.0,0.0,1.0
1996-08-29,99.5,99.5,99.5,99.5,0.0,1.0
1996-08-30,101.0,100.0,99.5,100.0,0.0,1.0
1996-09-02,99.5,99.5,99.5,99.5,0.0,0.0
1996-09-03,101.0,100.0,99.5,100.0,0.0,1.0
1996-09-04,99.5,99.5,99.5,99.5,0.0,0.0
1996-09-05,99.5,99.5,99.5,99.5,0.0,0.0
1996-09-06,99.5,99.5,99.5,99.5,0.0,0.0
1996-09-09,99.5,99.5,99.5,99.5,0.0,0.0
1996-09-10,99.5,99.5,99.5,99.5,0.0,0.0
1996-09-11,99.5,99.5,99.5,99.5,0.0,0.0
1996-09-12,99.5,99.5,99.5,99.5,0.0,0.0
1996-09-13,99.5,99.5,99.5,99.5,0.0,0.0
1996-09-16,99.5,99.5,99.5,99.5,0.0,0.0
1996-09-17,99.5,99.5,99.5,99.5,0.0,0.0
1996-09-18,99.5,99.5,99.5,99.5,0.0,0.0
1996-09-19,99.5,99.5,99.5,99.5,0.0,0.0
1996-09-20,99.5,99.5,99.5,99.5,0.0,0.0
1996-09-23,99.5,99.5,99.5,99.5,0.0,0.0
1996-09-24,99.5,99.5,99.5,99.5,0.0,0.0
1996-09-25,99.5,99.5,99.5,99.5,0.0,0.0
1996-09-26,99.5,99.5,99.5,99.5,0.0,0.0
1996-09-27,99.5,99.5,99.5,99.5,0.0,0.0
1996-09-30,99.5,99.5,99.5,99.5,0.0,0.0
1996-10-01,99.5,99.5,99.5,99.5,0.0,0.0
1996-10-02,99.5,99.5,99.5,99.5,0.0,0.0
1996-10-03,99.5,99.5,99.5,99.5,0.0,0.0
1996-10-04,99.5,99.5,99.5,99.5,0.0,0.0
1996-10-07,99.5,99.5,99.5,99.5,0.0,0.0
1996-10-08,99.5,99.5,99.5,99.5,0.0,0.0
1996-10-09,99.5,99.5,99.5,99.5,0.0,0.0
1996-10-10,99.5,99.5,99.5,99.5,0.0,0.0
1996-10-11,99.5,99.5,99.5,99.5,0.0,0.0
1996-10-14,99.5,99.5,99.5,99.5,0.0,0.0
1996-10-15,99.5,99.5,99.5,99.5,0.0,0.0
1996-10-16,99.5,99.5,99.5,99.5,0.0,0.0
1996-10-17,99.5,99.5,99.5,99.5,0.0,0.0
1996-10-18,99.5,99.5,99.5,99.5,0.0,0.0
1996-10-21,99.5,99.5,99.5,99.5,0.0,0.0
1996-10-22,99.5,99.5,99.5,99.5,0.0,0.0
1996-10-23,99.5,99.5,99.5,99.5,0.0,0.0
1996-10-24,99.5,99.5,99.5,99.5,0.0,0.0
1996-10-25,99.5,99.5,99.5,99.5,0.0,0.0
1996-10-28,99.5,99.5,99.5,99.5,0.0,0.0
1996-10-29,99.5,99.5,99.5,99.5,0.0,0.0
1996-10-30,99.5,99.5,99.5,99.5,0.0,0.0
1996-10-31,99.5,99.5,99.5,99.5,0.0,0.0
1996-11-01,99.5,99.5,99.5,99.5,0.0,0.0
1996-11-04,99.5,99.5,99.5,99.5,0.0,0.0
1996-11-05,99.5,99.5,99.5,99.5,0.0,0.0
1996-11-06,99.5,99.5,99.5,99.5,0.0,0.0
1996-11-07,99.5,99.5,99.5,99.5,0.0,0.0
1996-11-08,99.5,99.5,99.5,99.5,0.0,0.0
1996-11-11,99.5,99.5,99.5,99.5,0.0,0.0
1996-11-12,99.5,99.5,99.5,99.5,0.0,0.0
1996-11-13,99.5,99.5,99.5,99.5,0.0,0.0
1996-11-14,99.5,99.5,99.5,99.5,0.0,0.0
1996-11-15,99.5,99.5,99.5,99.5,0.0,0.0
1996-11-18,99.5,99.5,99.5,99.5,0.0,0.0
1996-11-19,99.5,99.5,99.5,99.5,0.0,0.0
1996-11-20,99.5,99.5,99.5,99.5,0.0,0.0
1996-11-21,99.5,99.5,99.5,99.5,0.0,0.0
1996-11-22,99.5,99.5,99.5,99.5,0.0,0.0
1996-11-25,99.5,99.5,99.5,99.5,0.0,0.0
1996-11-26,99.5,99.5,99.5,99.5,0.0,0.0
1996-11-27,99.5,99.5,99.5,99.5,0.0,0.0
1996-11-28,99.5,99.5,99.5,99.5,0.0,0.0
1996-11-29,99.5,99.5,99.5,99.5,0.0,0.0
1996-12-02,99.5,99.5,99.5,99.5,0.0,0.0
1996-12-03,99.5,99.5,99.5,99.5,0.0,0.0
1996-12-04,99.5,99.5,99.5,99.5,0.0,0.0
1996-12-05,99.5,99.5,99.5,99.5,0.0,0.0
1996-12-06,98.5,98.5,98.5,98.5,0.0,1.0
1996-12-09,98.5,98.5,98.5,98.5,0.0,0.0
1996-12-10,97.0,97.0,96.5,97.0,0.0,5000.0
1996-12-11,94.5,94.5,94.5,94.5,0.0,1.0
1996-12-12,94.5,94.5,94.5,94.5,0.0,0.0
1996-12-13,94.5,94.5,94.5,94.5,0.0,0.0
1996-12-16,94.5,94.5,94.5,94.5,0.0,0.0
1996-12-17,94.5,94.5,94.5,94.5,0.0,0.0
1996-12-18,94.5,94.5,94.5,94.5,0.0,0.0
1996-12-19,94.5,94.5,94.5,94.5,0.0,0.0
1996-12-20,94.5,94.5,94.5,94.5,0.0,0.0
1996-12-23,94.5,94.5,94.5,94.5,0.0,0.0
1996-12-24,94.5,94.5,94.5,94.5,0.0,0.0
1996-12-25,94.5,94.5,94.5,94.5,0.0,0.0
1996-12-26,94.5,94.5,94.5,94.5,0.0,0.0
1996-12-27,93.5,93.5,93.5,93.5,0.0,1.0
1996-12-30,93.5,93.5,93.5,93.5,0.0,0.0
1996-12-31,93.5,93.5,93.5,93.5,0.0,0.0
1997-01-01,93.5,93.5,93.5,93.5,0.0,0.0
1997-01-02,93.0,93.0,93.0,93.0,0.0,1.0
1997-01-03,93.0,93.0,93.0,93.0,0.0,0.0
1997-01-06,92.5,92.5,92.5,92.5,0.0,1.0
1997-01-07,90.5,90.5,90.5,90.5,0.0,1.0
1997-01-08,90.5,90.5,90.5,90.5,0.0,0.0
1997-01-09,90.0,90.0,90.0,90.0,0.0,1.0
1997-01-10,89.0,89.0,89.0,89.0,0.0,1.0
1997-01-13,89.0,89.0,89.0,89.0,0.0,0.0
1997-01-14,89.0,89.0,89.0,89.0,0.0,500000.0
1997-01-15,89.0,89.0,89.0,89.0,0.0,0.0
1997-01-16,89.5,89.5,89.5,89.5,0.0,1.0
1997-01-17,91.0,91.0,92.5,91.0,0.0,5000.0
1997-01-20,94.5,94.5,94.5,94.5,0.0,1.0
1997-01-21,94.5,94.5,94.5,94.5,0.0,0.0
1997-01-22,94.5,94.5,94.5,94.5,0.0,0.0
1997-01-23,95.5,95.5,95.5,95.5,0.0,1.0
1997-01-24,95.5,95.5,95.5,95.5,0.0,0.0
1997-01-27,95.5,95.5,95.5,95.5,0.0,0.0
1997-01-28,95.5,95.5,95.5,95.5,0.0,0.0
1997-01-29,96.0,96.0,96.0,96.0,0.0,1.0
1997-01-30,97.5,97.5,97.5,97.5,0.0,1.0
1997-01-31,97.5,97.5,97.5,97.5,0.0,0.0
1997-02-03,97.5,97.5,97.5,97.5,0.0,0.0
1997-02-04,97.5,97.5,97.5,97.5,0.0,0.0
1997-02-05,97.5,97.5,97.5,97.5,0.0,0.0
1997-02-06,97.5,97.5,97.5,97.5,0.0,0.0
1997-02-07,98.5,98.5,98.5,98.5,0.0,1.0
1997-02-10,98.5,98.5,98.5,98.5,0.0,0.0
1997-02-11,98.5,98.5,98.5,98.5,0.0,0.0
1997-02-12,98.5,98.5,98.5,98.5,0.0,0.0
1997-02-13,99.5,99.5,99.5,99.5,0.0,1.0
1997-02-14,99.5,99.5,99.5,99.5,0.0,0.0
1997-02-17,99.5,99.5,99.5,99.5,0.0,0.0
1997-02-18,99.5,99.5,99.5,99.5,0.0,0.0
1997-02-19,99.5,99.5,99.5,99.5,0.0,0.0
1997-02-20,99.5,99.5,99.5,99.5,0.0,0.0
1997-02-21,99.5,99.5,99.5,99.5,0.0,0.0
1997-02-24,99.5,99.5,99.5,99.5,0.0,0.0
1997-02-25,99.5,99.5,99.5,99.5,0.0,0.0
1997-02-26,99.5,99.5,99.5,99.5,0.0,0.0
1997-02-27,99.5,99.5,99.5,99.5,0.0,0.0
1997-02-28,99.5,99.5,99.5,99.5,0.0,0.0
1997-03-03,99.5,99.5,99.5,99.5,0.0,0.0
1997-03-04,99.5,99.5,99.5,99.5,0.0,0.0
1997-03-05,99.5,99.5,99.5,99.5,0.0,0.0
1997-03-06,99.5,99.5,99.5,99.5,0.0,0.0
1997-03-07,99.5,99.5,99.5,99.5,0.0,0.0
1997-03-10,99.5,99.5,99.5,99.5,0.0,0.0
1997-03-11,100.5,100.5,100.5,100.5,0.0,1.0
1997-03-12,101.5,101.5,101.5,101.5,0.0,1.0
1997-03-13,101.5,101.5,101.5,101.5,0.0,0.0
1997-03-14,101.5,101.5,101.5,101.5,0.0,0.0
1997-03-17,102.0,102.0,102.0,102.0,0.0,1.0
1997-03-18,102.0,102.0,102.0,102.0,0.0,0.0
1997-03-19,102.0,102.0,102.0,102.0,0.0,0.0
1997-03-20,102.0,102.0,102.0,102.0,0.0,0.0
1997-03-21,102.0,102.0,102.0,102.0,0.0,0.0
1997-03-24,102.0,102.0,102.0,102.0,0.0,0.0
1997-03-25,102.0,102.0,102.0,102.0,0.0,0.0
1997-03-26,102.0,102.0,102.0,102.0,0.0,0.0
1997-03-27,102.0,102.0,102.0,102.0,0.0,0.0
1997-03-28,102.0,102.0,102.0,102.0,0.0,0.0
1997-03-31,102.0,102.0,102.0,102.0,0.0,0.0
1997-04-01,101.0,101.0,101.0,101.0,0.0,1.0
1997-04-02,101.0,101.0,101.0,101.0,0.0,0.0
1997-04-03,101.0,101.0,101.0,101.0,0.0,0.0
1997-04-04,101.0,101.0,101.0,101.0,0.0,0.0
1997-04-07,101.0,101.0,101.0,101.0,0.0,0.0
1997-04-08,101.0,101.0,101.0,101.0,0.0,0.0
1997-04-09,101.0,101.0,101.0,101.0,0.0,0.0
1997-04-10,101.0,101.0,101.0,101.0,0.0,0.0
1997-04-11,101.0,101.0,101.0,101.0,0.0,0.0
1997-04-14,101.0,100.5,100.5,100.5,0.0,1.0
1997-04-15,102.5,100.5,100.5,102.5,0.0,1.0
1997-04-16,101.5,100.5,100.5,101.5,0.0,1.0
1997-04-17,101.0,100.5,100.5,100.5,0.0,0.0
1997-04-18,101.0,100.5,100.5,100.5,0.0,0.0
1997-04-21,101.5,100.5,100.5,101.5,0.0,1.0
1997-04-22,101.0,100.5,100.5,100.5,0.0,0.0
1997-04-23,101.5,100.5,101.5,100.5,0.0,1.0
1997-04-24,101.0,100.5,100.5,100.5,0.0,1.0
1997-04-25,102.5,101.0,101.5,102.5,0.0,1.0
1997-04-28,101.0,100.5,100.5,100.5,0.0,1.0
1997-04-29,101.0,100.5,100.5,100.5,0.0,0.0
1997-04-30,100.5,100.5,100.5,100.5,0.0,0.0
1997-05-01,100.5,100.5,100.5,100.5,0.0,0.0
1997-05-02,100.5,100.5,100.5,100.5,0.0,0.0
1997-05-05,100.5,100.5,100.5,100.5,0.0,0.0
1997-05-06,100.0,99.5,99.5,99.5,0.0,1.0
1997-05-07,99.5,99.5,99.5,99.5,0.0,0.0
1997-05-08,99.5,99.5,99.5,99.5,0.0,0.0
1997-05-09,99.5,99.5,99.5,99.5,0.0,0.0
1997-05-12,99.5,99.5,99.5,99.5,0.0,6150000.0
1997-05-13,99.5,96.5,97.5,99.5,0.0,1.0
1997-05-14,99.5,96.5,97.5,99.5,0.0,1.0
1997-05-15,98.0,96.5,97.5,97.5,0.0,0.0
1997-05-16,97.5,96.5,97.5,97.5,0.0,0.0
1997-05-19,97.5,95.5,95.5,97.5,0.0,1.0
1997-05-20,95.5,95.5,95.5,95.5,0.0,0.0
1997-05-21,96.5,95.5,95.5,96.5,0.0,1.0
1997-05-22,95.5,95.5,95.5,95.5,0.0,0.0
1997-05-23,95.5,95.5,95.5,95.5,0.0,0.0
1997-05-26,95.5,95.5,95.5,95.5,0.0,0.0
1997-05-27,96.5,95.5,95.5,96.5,0.0,1.0
1997-05-28,96.5,95.5,95.5,96.5,0.0,1.0
1997-05-29,96.0,95.5,95.5,95.5,0.0,0.0
1997-05-30,96.0,95.5,95.5,95.5,0.0,0.0
1997-06-02,97.5,95.5,95.5,97.5,0.0,1.0
1997-06-03,96.0,95.5,95.5,95.5,0.0,0.0
1997-06-04,97.5,95.5,95.5,97.5,0.0,1.0
1997-06-05,97.5,95.5,95.5,97.5,0.0,1.0
1997-06-06,96.0,95.5,95.5,95.5,0.0,0.0
1997-06-09,97.5,95.5,95.5,97.5,0.0,1.0
1997-06-10,96.0,95.5,95.5,95.5,0.0,0.0
1997-06-11,97.5,95.5,95.5,97.5,0.0,1.0
1997-06-12,96.0,95.5,95.5,95.5,0.0,0.0
1997-06-13,97.5,95.5,95.5,97.5,0.0,1.0
1997-06-16,95.5,95.0,95.5,95.5,0.0,0.0
1997-06-17,95.5,95.0,95.5,95.5,0.0,0.0
1997-06-18,95.5,95.0,95.5,95.5,0.0,0.0
1997-06-19,95.5,95.0,95.5,95.5,0.0,0.0
1997-06-20,95.5,93.5,95.5,93.5,0.0,1.0
1997-06-23,95.5,94.5,94.5,95.5,0.0,1.0
1997-06-24,94.5,94.5,94.5,94.5,0.0,0.0
1997-06-25,94.5,94.5,94.5,94.5,0.0,0.0
1997-06-26,94.5,94.5,94.5,94.5,0.0,0.0
1997-06-27,94.5,94.5,94.5,94.5,0.0,0.0
1997-06-30,94.5,94.5,94.5,94.5,0.0,0.0
1997-07-01,94.5,94.5,94.5,94.5,0.0,0.0
1997-07-02,94.5,94.5,94.5,94.5,0.0,0.0
1997-07-03,94.5,94.5,94.5,94.5,0.0,0.0
1997-07-04,94.5,94.5,94.5,94.5,0.0,0.0
1997-07-07,94.5,94.5,94.5,94.5,0.0,0.0
1997-07-08,94.5,94.5,94.5,94.5,0.0,0.0
1997-07-09,94.5,93.5,94.5,93.5,0.0,1.0
1997-07-10,94.5,94.5,94.5,94.5,0.0,0.0
1997-07-11,94.5,93.5,94.5,94.5,0.0,0.0
1997-07-14,94.5,94.5,94.5,94.5,0.0,0.0
1997-07-15,94.5,93.5,94.5,93.5,0.0,1.0
1997-07-16,94.5,94.5,94.5,94.5,0.0,0.0
1997-07-17,94.5,93.5,94.5,93.5,0.0,1.0
1997-07-18,94.5,94.5,94.5,94.5,0.0,0.0
1997-07-21,94.5,93.5,94.5,93.5,0.0,1.0
1997-07-22,94.5,93.5,94.5,93.5,0.0,1.0
1997-07-23,94.5,93.5,94.5,94.5,0.0,0.0
1997-07-24,94.5,91.5,94.5,91.5,0.0,1.0
1997-07-25,94.5,93.5,94.5,94.5,0.0,0.0
1997-07-28,94.5,93.5,94.5,94.5,0.0,0.0
1997-07-29,94.5,93.5,94.5,94.5,0.0,0.0
1997-07-30,94.5,93.5,94.5,94.5,0.0,0.0
1997-07-31,94.5,93.5,94.5,94.5,0.0,0.0
1997-08-01,94.5,93.5,94.5,94.5,0.0,0.0
1997-08-04,94.5,93.5,94.5,94.5,0.0,0.0
1997-08-05,94.5,93.5,94.5,94.5,0.0,0.0
1997-08-06,94.5,93.5,94.5,94.5,0.0,0.0
1997-08-07,94.5,93.5,93.5,94.5,0.0,1.0
1997-08-08,94.5,93.5,93.5,94.5,0.0,1.0
1997-08-11,94.5,93.5,94.5,93.5,0.0,1.0
1997-08-12,94.5,94.0,94.5,94.5,0.0,0.0
1997-08-13,94.5,93.5,94.5,93.5,0.0,1.0
1997-08-14,94.5,93.5,94.5,93.5,0.0,1.0
1997-08-15,94.5,94.0,94.5,94.5,0.0,0.0
1997-08-18,94.5,93.5,94.5,93.5,0.0,1.0
1997-08-19,94.5,94.5,94.5,94.5,0.0,0.0
1997-08-20,94.5,94.0,94.5,94.5,0.0,0.0
1997-08-21,94.5,94.0,94.5,94.5,0.0,0.0
1997-08-22,94.5,93.5,94.5,93.5,0.0,1.0
1997-08-25,94.5,94.5,94.5,94.5,0.0,0.0
1997-08-26,94.5,93.5,93.5,94.5,0.0,1.0
1997-08-27,94.5,92.5,92.5,94.5,0.0,1.0
1997-08-28,93.5,92.0,92.5,93.5,0.0,1.0
1997-08-29,92.5,92.0,92.5,92.5,0.0,0.0
1997-09-01,92.5,91.5,92.5,91.5,0.0,1.0
1997-09-02,92.5,91.5,92.5,91.5,0.0,1.0
1997-09-03,92.5,91.5,92.5,91.5,0.0,1.0
1997-09-04,92.5,91.5,92.5,91.5,0.0,1.0
1997-09-05,92.5,91.5,92.5,92.5,0.0,0.0
1997-09-08,92.5,91.0,92.5,91.5,0.0,1.0
1997-09-09,92.5,91.5,92.5,91.5,0.0,1.0
1997-09-10,92.5,91.5,92.5,91.5,0.0,1.0
1997-09-11,92.5,91.5,92.5,92.5,0.0,0.0
1997-09-12,92.5,91.5,92.5,91.5,0.0,1.0
1997-09-15,92.5,91.5,92.5,92.5,0.0,0.0
1997-09-16,92.5,91.0,92.5,91.5,0.0,1.0
1997-09-17,92.0,91.0,91.5,91.5,0.0,1.0
1997-09-18,92.5,89.5,92.5,89.5,0.0,1.0
1997-09-19,92.5,91.5,92.5,92.5,0.0,0.0
1997-09-22,92.5,91.0,92.5,91.5,0.0,1.0
1997-09-23,92.5,91.0,92.5,91.5,0.0,1.0
1997-09-24,92.0,89.5,91.5,89.5,0.0,1.0
1997-09-25,92.5,91.5,92.5,92.5,0.0,1.0
1997-09-26,92.5,90.0,90.5,92.5,0.0,1.0
1997-09-29,90.5,89.5,89.5,90.5,0.0,1.0
1997-09-30,90.5,89.5,90.5,89.5,0.0,1.0
1997-10-01,91.0,89.5,90.5,89.5,0.0,1.0
1997-10-02,91.0,89.5,90.5,89.5,0.0,1.0
1997-10-03,90.5,89.5,90.5,89.5,0.0,1.0
1997-10-06,90.5,90.0,90.5,90.5,0.0,0.0
1997-10-07,90.5,89.5,90.5,89.5,0.0,1.0
1997-10-08,90.5,90.0,90.5,90.5,0.0,0.0
1997-10-09,90.5,88.5,90.5,88.5,0.0,1.0
1997-10-10,90.5,90.0,90.5,90.5,0.0,0.0
1997-10-13,90.5,90.0,90.5,90.5,0.0,0.0
1997-10-14,90.5,90.0,90.5,90.5,0.0,0.0
1997-10-15,90.5,88.5,90.5,88.5,0.0,1.0
1997-10-16,90.5,89.5,90.5,89.5,0.0,1.0
1997-10-17,90.5,90.0,90.5,90.5,0.0,0.0
1997-10-20,90.5,89.5,90.5,89.5,0.0,1.0
1997-10-21,90.5,90.0,90.5,90.5,0.0,0.0
1997-10-22,90.5,89.5,90.5,89.5,0.0,1.0
1997-10-23,90.5,90.0,90.5,90.5,0.0,0.0
1997-10-24,90.5,90.0,90.5,90.5,0.0,0.0
1997-10-27,90.5,90.0,90.5,90.5,0.0,0.0
1997-10-28,88.5,87.5,87.5,88.5,0.0,1.0
1997-10-29,89.5,88.5,88.5,89.5,0.0,1.0
1997-10-30,89.5,89.0,89.5,89.5,0.0,1.0
1997-10-31,89.5,89.0,89.5,89.5,0.0,0.0
1997-11-03,89.5,88.5,89.5,88.5,0.0,1.0
1997-11-04,89.5,89.0,89.5,89.5,0.0,0.0
1997-11-05,89.5,88.5,89.5,88.5,0.0,1.0
1997-11-06,89.5,89.0,89.5,89.5,0.0,0.0
1997-11-07,89.5,88.5,89.5,88.5,0.0,1.0
1997-11-10,89.5,88.5,89.5,88.5,0.0,1.0
1997-11-11,89.5,88.5,89.5,88.5,0.0,1.0
1997-11-12,88.5,87.5,87.5,88.5,0.0,1.0
1997-11-13,87.5,87.5,87.5,87.5,0.0,0.0
1997-11-14,87.5,87.5,87.5,87.5,0.0,0.0
1997-11-17,88.5,87.5,87.5,88.5,0.0,1.0
1997-11-18,87.5,85.5,85.5,87.5,0.0,1.0
1997-11-19,85.5,85.5,85.5,85.5,0.0,0.0
1997-11-20,85.5,84.5,84.5,85.5,0.0,2000.0
1997-11-21,84.5,84.5,84.5,84.5,0.0,0.0
1997-11-24,84.5,84.5,84.5,84.5,0.0,0.0
1997-11-25,84.5,84.5,84.5,84.5,0.0,13142.0
1997-11-26,84.5,82.5,82.5,84.5,0.0,1.0
1997-11-27,84.5,82.5,82.5,84.5,0.0,1.0
1997-11-28,85.0,80.5,80.5,85.0,0.0,1.0
1997-12-01,82.5,80.5,80.5,82.5,0.0,1.0
1997-12-02,80.5,80.5,80.5,80.5,0.0,0.0
1997-12-03,80.5,80.5,80.5,80.5,0.0,0.0
1997-12-04,80.5,80.5,80.5,80.5,0.0,0.0
1997-12-05,82.5,80.5,80.5,82.5,0.0,1.0
1997-12-08,80.5,80.5,80.5,80.5,0.0,0.0
1997-12-09,82.5,80.5,80.5,82.5,0.0,500000.0
1997-12-10,82.5,79.0,80.5,82.5,0.0,1.0
1997-12-11,80.5,77.5,80.5,77.5,0.0,1.0
1997-12-12,80.5,79.0,80.5,80.5,0.0,0.0
1997-12-15,82.5,78.5,80.5,82.5,0.0,1.0
1997-12-16,80.5,79.5,80.5,80.5,0.0,0.0
1997-12-17,80.5,78.5,80.5,78.5,0.0,1.0
1997-12-18,80.5,78.5,80.5,78.5,0.0,1.0
1997-12-19,80.5,78.5,80.5,78.5,0.0,1.0
1997-12-22,80.5,78.5,78.5,80.5,0.0,1.0
1997-12-23,82.5,79.5,80.5,82.5,0.0,1.0
1997-12-24,80.5,78.5,80.5,78.5,0.0,1.0
1997-12-25,80.5,80.5,80.5,80.5,0.0,0.0
1997-12-26,80.5,80.5,80.5,80.5,0.0,0.0
1997-12-29,80.5,79.0,80.5,80.5,0.0,0.0
1997-12-30,80.5,79.0,80.5,80.5,0.0,0.0
1997-12-31,82.5,77.5,77.5,82.5,0.0,1.0
1998-01-01,77.5,77.5,77.5,77.5,0.0,0.0
1998-01-02,82.5,77.5,80.5,82.5,0.0,1.0
1998-01-05,82.5,79.5,80.5,82.5,0.0,1.0
1998-01-06,82.5,80.5,82.5,80.5,0.0,1.0
1998-01-07,82.5,80.5,82.5,82.5,0.0,0.0
1998-01-08,82.5,80.5,82.5,82.5,0.0,0.0
1998-01-09,82.5,81.5,82.5,82.5,0.0,0.0
1998-01-12,82.5,80.5,82.5,82.5,0.0,0.0
1998-01-13,82.5,80.5,82.5,82.5,0.0,0.0
1998-01-14,82.5,80.5,80.5,82.5,0.0,1.0
1998-01-15,80.5,80.5,80.5,80.5,0.0,0.0
1998-01-16,80.5,77.5,77.5,80.5,0.0,1.0
1998-01-19,78.0,77.5,77.5,77.5,0.0,0.0
1998-01-20,78.0,77.5,77.5,77.5,0.0,0.0
1998-01-21,78.0,77.5,77.5,77.5,0.0,0.0
1998-01-22,78.0,77.5,77.5,77.5,0.0,0.0
1998-01-23,78.0,77.5,77.5,77.5,0.0,0.0
1998-01-26,78.0,77.5,77.5,77.5,0.0,0.0
1998-01-27,78.0,77.5,77.5,77.5,0.0,0.0
1998-01-28,78.5,77.5,77.5,78.5,0.0,1.0
1998-01-29,78.5,77.5,77.5,77.5,0.0,0.0
1998-01-30,79.0,77.5,78.5,77.5,0.0,1.0
1998-02-02,79.5,78.5,78.5,79.5,0.0,1.0
1998-02-03,79.5,78.5,78.5,79.5,0.0,1.0
1998-02-04,79.5,78.5,79.5,78.5,0.0,1.0
1998-02-05,79.5,79.5,79.5,79.5,0.0,0.0
1998-02-06,79.5,79.5,79.5,79.5,0.0,0.0
1998-02-09,80.0,79.5,79.5,79.5,0.0,0.0
1998-02-10,80.0,79.5,79.5,79.5,0.0,0.0
1998-02-11,80.5,79.5,79.5,80.5,0.0,1.0
1998-02-12,80.0,79.5,79.5,79.5,0.0,0.0
1998-02-13,80.0,79.5,79.5,79.5,0.0,0.0
1998-02-16,80.0,79.5,79.5,79.5,0.0,0.0
1998-02-17,81.0,79.5,80.5,79.5,0.0,1.0
1998-02-18,81.0,80.5,80.5,80.5,0.0,0.0
1998-02-19,81.0,80.5,80.5,80.5,0.0,0.0
1998-02-20,83.0,81.0,82.5,81.5,0.0,1.0
1998-02-23,83.5,82.5,82.5,82.5,0.0,0.0
1998-02-24,85.0,83.5,84.5,84.5,0.0,1.0
1998-02-25,86.5,84.5,86.5,84.5,0.0,1.0
1998-02-26,87.0,85.5,86.5,86.5,0.0,0.0
1998-02-27,86.5,85.5,86.5,86.5,0.0,0.0
1998-03-02,86.5,85.5,86.5,86.5,0.0,0.0
1998-03-03,86.5,85.5,86.5,86.5,0.0,0.0
1998-03-04,86.5,85.0,86.5,85.0,0.0,1.0
1998-03-05,86.5,84.5,84.5,86.5,0.0,1.0
1998-03-06,86.5,85.0,86.5,85.0,0.0,1.0
1998-03-09,86.5,85.5,86.5,86.5,0.0,21589.0
1998-03-10,86.5,85.0,86.5,85.5,0.0,1.0
1998-03-11,86.5,86.0,86.5,86.0,0.0,1.0
1998-03-12,86.5,85.5,86.5,85.5,0.0,1.0
1998-03-13,86.5,86.0,86.5,86.0,0.0,1.0
1998-03-16,86.5,86.0,86.5,86.5,0.0,0.0
1998-03-17,87.5,86.0,87.5,86.5,0.0,25000.0
1998-03-18,89.0,87.0,88.5,87.0,0.0,1.0
1998-03-19,92.5,87.5,92.5,87.5,0.0,1.0
1998-03-20,92.5,92.0,92.5,92.5,0.0,0.0
1998-03-23,92.5,92.0,92.5,92.5,0.0,0.0
1998-03-24,92.5,92.0,92.5,92.5,0.0,0.0
1998-03-25,93.5,92.5,92.5,93.5,0.0,1.0
1998-03-26,93.0,92.5,92.5,92.5,0.0,0.0
1998-03-27,93.0,92.0,92.5,92.5,0.0,50000.0
1998-03-30,93.0,92.5,92.5,93.0,0.0,1.0
1998-03-31,95.5,94.5,94.5,95.0,0.0,1.0
1998-04-01,96.0,94.5,94.5,96.0,0.0,1.0
1998-04-02,96.0,94.5,94.5,94.5,0.0,0.0
1998-04-03,98.5,96.0,98.5,97.0,0.0,1.0
1998-04-06,98.5,98.0,98.5,98.5,0.0,0.0
1998-04-07,98.5,98.0,98.5,98.5,0.0,0.0
1998-04-08,98.5,98.0,98.5,98.0,0.0,1.0
1998-04-09,98.5,97.5,97.5,98.5,0.0,1.0
1998-04-10,97.5,97.5,97.5,97.5,0.0,0.0
1998-04-13,97.5,97.5,97.5,97.5,0.0,0.0
1998-04-14,98.5,97.5,97.5,98.5,0.0,1.0
1998-04-15,98.0,97.5,97.5,98.0,0.0,1.0
1998-04-16,98.5,97.5,97.5,98.5,0.0,1.0
1998-04-17,98.0,97.5,98.0,97.5,0.0,1.0
1998-04-20,97.5,96.5,97.5,96.5,0.0,1.0
1998-04-21,98.0,97.0,97.5,97.5,0.0,0.0
1998-04-22,98.0,97.0,97.5,97.5,0.0,0.0
1998-04-23,98.0,97.0,97.5,97.5,0.0,0.0
1998-04-24,98.0,97.0,97.5,97.5,0.0,0.0
1998-04-27,96.5,95.5,96.0,95.5,0.0,1.0
1998-04-28,96.0,95.0,95.5,95.5,0.0,1.0
1998-04-29,95.5,93.5,94.5,95.5,0.0,1.0
1998-04-30,94.5,93.5,94.5,94.5,0.0,0.0
1998-05-01,94.5,93.5,94.5,94.5,0.0,0.0
1998-05-04,94.5,94.5,94.5,94.5,0.0,0.0
1998-05-05,94.5,92.5,94.5,92.5,0.0,1.0
1998-05-06,95.5,94.5,94.5,95.5,0.0,1.0
1998-05-07,95.5,95.0,95.5,95.5,0.0,1.0
1998-05-08,95.5,94.5,94.5,95.5,0.0,1.0
1998-05-11,95.5,94.5,94.5,95.5,0.0,1.0
1998-05-12,95.0,94.5,94.5,94.5,0.0,0.0
1998-05-13,95.5,94.5,94.5,95.5,0.0,1.0
1998-05-14,95.0,94.5,94.5,94.5,0.0,0.0
1998-05-15,96.0,94.5,95.5,94.5,0.0,1.0
1998-05-18,96.0,95.5,95.5,95.5,0.0,0.0
1998-05-19,96.5,95.5,96.5,95.5,0.0,1.0
1998-05-20,96.0,95.5,95.5,95.5,0.0,1.0
1998-05-21,96.0,95.5,95.5,95.5,0.0,0.0
1998-05-22,96.0,95.5,95.5,95.5,0.0,0.0
1998-05-25,95.5,95.5,95.5,95.5,0.0,0.0
1998-05-26,96.5,95.5,95.5,96.5,0.0,1.0
1998-05-27,96.0,95.5,95.5,95.5,0.0,0.0
1998-05-28,96.5,95.5,95.5,96.5,0.0,1.0
1998-05-29,96.0,95.5,95.5,95.5,0.0,0.0
1998-06-01,96.5,95.5,95.5,96.5,0.0,1.0
1998-06-02,96.5,95.5,95.5,96.5,0.0,1.0
1998-06-03,96.5,95.5,95.5,96.5,0.0,1.0
1998-06-04,96.5,95.5,95.5,96.5,0.0,1.0
1998-06-05,96.0,95.5,95.5,95.5,0.0,0.0
1998-06-08,96.0,95.5,95.5,95.5,0.0,0.0
1998-06-09,96.5,95.5,95.5,96.5,0.0,1.0
1998-06-10,96.5,95.5,95.5,96.5,0.0,1.0
1998-06-11,96.5,95.5,95.5,96.5,0.0,1.0
1998-06-12,97.0,95.5,95.5,96.5,0.0,1.0
1998-06-15,97.5,95.5,97.5,95.5,0.0,1.0
1998-06-16,97.5,96.5,97.5,96.5,0.0,100000.0
1998-06-17,97.0,96.5,96.5,96.5,0.0,1.0
1998-06-18,97.5,97.0,97.5,97.5,0.0,1.0
1998-06-19,97.5,97.0,97.5,97.5,0.0,0.0
1998-06-22,97.5,96.5,97.5,96.5,0.0,1.0
1998-06-23,97.5,95.5,95.5,97.5,0.0,1.0
1998-06-24,97.5,96.0,96.5,97.5,0.0,1.0
1998-06-25,97.5,95.5,97.5,95.5,0.0,1.0
1998-06-26,97.5,95.5,97.5,95.5,0.0,1.0
1998-06-29,97.5,96.0,97.5,96.5,0.0,1.0
1998-06-30,97.5,96.5,97.5,97.5,0.0,0.0
1998-07-01,97.5,95.5,95.5,97.5,0.0,1.0
1998-07-02,96.5,94.5,94.5,96.5,0.0,1.0
1998-07-03,96.5,95.5,95.5,96.5,0.0,1.0
1998-07-06,95.5,94.5,94.5,94.5,0.0,1.0
1998-07-07,95.5,94.5,94.5,94.5,0.0,0.0
1998-07-08,96.5,95.5,95.5,96.5,0.0,1.0
1998-07-09,95.5,94.5,94.5,94.5,0.0,1.0
1998-07-10,95.5,94.5,94.5,94.5,0.0,0.0
1998-07-13,95.5,94.5,95.5,94.5,0.0,1.0
1998-07-14,95.5,94.5,95.5,94.5,0.0,1.0
1998-07-15,95.5,94.5,95.5,94.5,0.0,1.0
1998-07-16,96.5,94.5,95.5,96.5,0.0,1.0
1998-07-17,96.5,95.5,95.5,96.5,0.0,1.0
1998-07-20,95.5,94.5,95.0,94.5,0.0,257000.0
1998-07-21,94.5,92.5,93.0,94.5,0.0,1.0
1998-07-22,93.0,92.5,92.5,92.5,0.0,1.0
1998-07-23,92.0,91.5,92.0,91.5,0.0,1.0
1998-07-24,91.5,91.5,91.5,91.5,0.0,1.0
1998-07-27,91.5,91.5,91.5,91.5,0.0,0.0
1998-07-28,91.5,91.5,91.5,91.5,0.0,0.0
1998-07-29,91.5,90.5,91.0,91.5,0.0,1.0
1998-07-30,91.0,90.5,91.0,90.5,0.0,1.0
1998-07-31,91.0,90.5,91.0,90.5,0.0,1.0
1998-08-03,91.0,90.5,91.0,90.5,0.0,1.0
1998-08-04,91.5,90.5,91.0,91.5,0.0,1.0
1998-08-05,89.5,89.5,89.5,89.5,0.0,1.0
1998-08-06,89.5,88.5,89.0,89.5,0.0,1.0
1998-08-07,89.5,88.5,88.5,88.5,0.0,1.0
1998-08-10,88.5,87.0,87.0,88.5,0.0,1.0
1998-08-11,87.5,87.0,87.0,87.5,0.0,1.0
1998-08-12,87.5,86.5,86.5,87.5,0.0,1.0
1998-08-13,86.5,86.5,86.5,86.5,0.0,0.0
1998-08-14,86.5,86.5,86.5,86.5,0.0,0.0
1998-08-17,86.5,85.5,85.5,86.5,0.0,1.0
1998-08-18,85.5,85.5,85.5,85.5,0.0,0.0
1998-08-19,85.5,85.5,85.5,85.5,0.0,0.0
1998-08-20,85.5,85.5,85.5,85.5,0.0,0.0
1998-08-21,85.5,85.0,85.0,85.5,0.0,1.0
1998-08-24,85.5,85.0,85.0,85.5,0.0,1.0
1998-08-25,85.5,85.0,85.0,85.5,0.0,1.0
1998-08-26,85.5,81.0,81.0,85.5,0.0,1.0
1998-08-27,80.5,77.0,77.0,79.5,0.0,1.0
1998-08-28,75.0,72.5,72.5,74.5,0.0,1.0
1998-08-31,72.5,72.5,72.5,72.5,0.0,0.0
1998-09-01,70.5,70.0,70.0,70.5,0.0,1.0
1998-09-02,70.5,70.0,70.5,70.5,0.0,1.0
1998-09-03,70.5,69.5,70.0,70.5,0.0,1.0
1998-09-04,70.0,69.5,69.5,69.5,0.0,1.0
1998-09-07,69.5,69.5,69.5,69.5,0.0,0.0
1998-09-08,69.5,69.5,69.5,69.5,0.0,0.0
1998-09-09,70.0,69.5,70.0,69.5,0.0,1.0
1998-09-10,71.5,70.0,71.5,70.5,0.0,1.0
1998-09-11,72.5,70.5,71.5,70.5,0.0,1.0
1998-09-14,72.5,70.5,72.0,70.5,0.0,1.0
1998-09-15,73.5,70.5,72.0,70.5,0.0,1.0
1998-09-16,73.5,71.5,72.0,72.5,0.0,1.0
1998-09-17,72.5,70.5,72.0,70.5,0.0,1.0
1998-09-18,72.5,70.5,72.0,70.5,0.0,1.0
1998-09-21,72.5,70.5,72.0,70.5,0.0,1.0
1998-09-22,72.5,70.5,72.0,72.5,0.0,1.0
1998-09-23,73.0,70.5,73.0,70.5,0.0,1.0
1998-09-24,73.5,72.5,73.5,72.5,0.0,1.0
1998-09-25,73.0,72.5,73.0,72.5,0.0,1.0
1998-09-28,73.0,72.5,73.0,72.5,0.0,1.0
1998-09-29,73.0,72.5,73.0,72.5,0.0,1.0
1998-09-30,73.5,72.5,73.0,73.5,0.0,1.0
1998-10-01,73.0,72.5,73.0,72.5,0.0,1.0
1998-10-02,73.0,72.0,73.0,72.5,0.0,1.0
1998-10-05,73.5,72.5,73.0,73.5,0.0,1.0
1998-10-06,73.0,72.5,73.0,72.5,0.0,1.0
1998-10-07,72.5,72.0,72.5,72.5,0.0,1.0
1998-10-08,72.5,71.5,71.5,72.5,0.0,1.0
1998-10-09,71.5,70.5,70.5,70.5,0.0,1.0
1998-10-12,70.5,70.5,70.5,70.5,0.0,0.0
1998-10-13,70.5,70.5,70.5,70.5,0.0,0.0
1998-10-14,70.5,70.5,70.5,70.5,0.0,0.0
1998-10-15,70.5,70.5,70.5,70.5,0.0,0.0
1998-10-16,71.0,70.5,71.0,70.5,0.0,1.0
1998-10-19,71.5,71.0,71.0,71.5,0.0,1.0
1998-10-20,72.5,70.5,72.0,70.5,0.0,1.0
1998-10-21,72.5,72.0,72.0,72.5,0.0,1.0
1998-10-22,72.5,72.0,72.0,72.5,0.0,1.0
1998-10-23,72.0,71.5,72.0,71.5,0.0,1.0
1998-10-26,72.0,71.5,72.0,71.5,0.0,1.0
1998-10-27,72.5,72.0,72.0,72.5,0.0,1.0
1998-10-28,72.5,71.5,72.0,72.5,0.0,1.0
1998-10-29,72.5,72.0,72.0,72.5,0.0,1.0
1998-10-30,72.5,71.5,72.0,72.5,0.0,1.0
1998-11-02,73.5,72.0,72.5,73.5,0.0,1.0
1998-11-03,74.5,72.5,73.0,74.5,0.0,1.0
1998-11-04,73.5,72.5,73.0,73.5,0.0,1.0
1998-11-05,73.5,72.5,73.0,73.5,0.0,1.0
1998-11-06,73.5,72.5,73.0,73.5,0.0,1.0
1998-11-09,73.5,73.0,73.0,73.5,0.0,1.0
1998-11-10,73.5,71.5,72.0,73.5,0.0,1.0
1998-11-11,72.5,71.5,72.0,71.5,0.0,1.0
1998-11-12,72.5,71.5,72.0,71.5,0.0,1.0
1998-11-13,72.5,72.0,72.0,72.5,0.0,1.0
1998-11-16,72.0,71.5,72.0,71.5,0.0,1.0
1998-11-17,72.0,71.5,72.0,71.5,0.0,1.0
1998-11-18,72.0,71.5,72.0,71.5,0.0,1.0
1998-11-19,72.5,71.5,72.0,71.5,0.0,1.0
1998-11-20,72.5,71.5,72.0,71.5,0.0,1.0
1998-11-23,72.5,71.5,72.0,72.5,0.0,1.0
1998-11-24,72.5,71.5,71.5,71.5,0.0,1.0
1998-11-25,72.5,71.5,71.5,72.5,0.0,1.0
1998-11-26,72.5,71.5,71.5,71.5,0.0,0.0
1998-11-27,72.0,70.5,71.0,71.5,0.0,1.0
1998-11-30,71.5,69.5,70.0,71.5,0.0,1.0
1998-12-01,70.5,70.0,70.0,70.5,0.0,1.0
1998-12-02,70.5,67.5,68.0,70.5,0.0,1.0
1998-12-03,68.5,67.5,68.0,68.5,0.0,1.0
1998-12-04,68.0,67.5,68.0,67.5,0.0,1.0
1998-12-07,68.0,67.5,68.0,67.5,0.0,1.0
1998-12-08,68.0,67.5,68.0,67.5,0.0,1.0
1998-12-09,68.0,67.5,68.0,67.5,0.0,1.0
1998-12-10,68.5,67.5,68.0,68.5,0.0,1.0
1998-12-11,68.0,67.5,68.0,67.5,0.0,1.0
1998-12-14,68.0,65.5,67.0,67.5,0.0,1.0
1998-12-15,68.0,65.5,67.0,67.5,0.0,1.0
1998-12-16,68.5,66.5,67.0,67.5,0.0,1.0
1998-12-17,68.5,67.0,67.0,68.5,0.0,1.0
1998-12-18,68.0,65.5,67.0,67.5,0.0,1.0
1998-12-21,68.5,65.5,67.0,68.5,0.0,1.0
1998-12-22,68.0,66.5,67.0,67.5,0.0,1.0
1998-12-23,68.5,67.0,67.0,68.5,0.0,1.0
1998-12-24,68.0,67.0,67.0,67.5,0.0,1.0
1998-12-25,67.0,67.0,67.0,67.0,0.0,0.0
1998-12-28,67.0,67.0,67.0,67.0,0.0,0.0
1998-12-29,68.5,67.0,67.0,67.5,0.0,1.0
1998-12-30,68.0,66.5,67.0,67.5,0.0,1.0
1998-12-31,67.0,67.0,67.0,67.0,0.0,0.0
1999-01-01,67.0,67.0,67.0,67.0,0.0,0.0
1999-01-04,68.0,65.5,67.0,67.5,0.0,1.0
1999-01-05,67.5,65.5,67.5,65.5,0.0,1.0
1999-01-06,68.5,65.5,68.5,65.5,0.0,1.0
1999-01-07,68.5,67.5,68.5,67.5,0.0,1.0
1999-01-08,68.5,67.5,68.5,67.5,0.0,1.0
1999-01-11,69.5,68.5,68.5,69.5,0.0,1.0
1999-01-12,69.5,68.5,68.5,69.5,0.0,1.0
1999-01-13,68.5,65.5,66.5,68.5,0.0,1.0
1999-01-14,67.5,66.5,66.5,67.5,0.0,1.0
1999-01-15,67.5,66.5,67.5,67.5,0.0,1.0
1999-01-18,67.5,67.5,67.5,67.5,0.0,0.0
1999-01-19,67.5,67.5,67.5,67.5,0.0,0.0
1999-01-20,67.5,67.5,67.5,67.5,0.0,0.0
1999-01-21,67.5,67.5,67.5,67.5,0.0,0.0
1999-01-22,67.5,67.5,67.5,67.5,0.0,0.0
1999-01-25,67.5,66.5,67.0,67.5,0.0,1.0
1999-01-26,67.5,67.0,67.0,67.5,0.0,1.0
1999-01-27,67.5,67.0,67.0,67.5,0.0,1.0
1999-01-28,67.5,67.0,67.0,67.5,0.0,1.0
1999-01-29,68.5,67.0,68.0,67.5,0.0,1.0
1999-02-01,69.0,67.5,69.0,67.5,0.0,1.0
1999-02-02,69.5,68.5,69.0,68.5,0.0,1.0
1999-02-03,69.5,68.5,69.0,68.5,0.0,1.0
1999-02-04,69.5,68.5,69.5,68.5,0.0,1.0
1999-02-05,69.5,69.5,69.5,69.5,0.0,0.0
1999-02-08,69.5,69.5,69.5,69.5,0.0,0.0
1999-02-09,69.5,69.5,69.5,69.5,0.0,0.0
1999-02-10,69.5,69.0,69.0,69.5,0.0,1.0
1999-02-11,69.5,69.0,69.0,69.5,0.0,1.0
1999-02-12,69.5,68.5,68.5,68.5,0.0,1.0
1999-02-15,69.5,68.5,68.5,69.5,0.0,1.0
1999-02-16,69.5,68.5,69.0,68.5,0.0,1.0
1999-02-17,69.5,69.0,69.0,69.5,0.0,1.0
1999-02-18,69.5,69.0,69.0,69.5,0.0,1.0
1999-02-19,69.5,68.5,69.0,69.5,0.0,1.0
1999-02-22,69.5,69.0,69.0,69.5,0.0,1.0
1999-02-23,69.5,68.5,69.0,68.5,0.0,1.0
1999-02-24,69.5,68.5,69.0,68.5,0.0,1.0
1999-02-25,69.5,69.0,69.0,69.5,0.0,1.0
1999-02-26,69.5,68.5,69.0,68.5,0.0,1.0
1999-03-01,69.5,68.5,69.0,68.5,0.0,1.0
1999-03-02,69.5,69.0,69.0,69.5,0.0,1.0
1999-03-03,69.5,69.0,69.0,69.5,0.0,1.0
1999-03-04,69.5,69.0,69.0,69.5,0.0,1.0
1999-03-05,69.5,69.0,69.0,69.5,0.0,1.0
1999-03-08,69.5,69.0,69.0,69.5,0.0,1.0
1999-03-09,69.5,69.0,69.0,69.5,0.0,1.0
1999-03-10,69.5,69.0,69.0,69.5,0.0,1.0
1999-03-11,69.5,69.0,69.0,69.5,0.0,1.0
1999-03-12,69.5,69.0,69.0,69.5,0.0,1.0
1999-03-15,69.5,69.0,69.5,69.5,0.0,1.0
1999-03-16,69.5,69.5,69.5,69.5,0.0,0.0
1999-03-17,69.5,69.5,69.5,69.5,0.0,0.0
1999-03-18,69.5,69.5,69.5,69.5,0.0,761214.0
1999-03-19,69.5,69.5,69.5,69.5,0.0,0.0
1999-03-22,69.5,69.5,69.5,69.5,0.0,0.0
1999-03-23,69.5,69.5,69.5,69.5,0.0,0.0
1999-03-24,69.5,69.5,69.5,69.5,0.0,0.0
1999-03-25,69.5,69.5,69.5,69.5,0.0,0.0
1999-03-26,69.5,67.5,68.5,69.5,0.0,1.0
1999-03-29,69.5,68.5,69.5,69.5,0.0,1.0
1999-03-30,69.5,69.5,69.5,69.5,0.0,1775000.0
1999-03-31,69.5,69.0,69.0,69.5,0.0,1.0
1999-04-01,69.5,68.5,69.0,68.5,0.0,1.0
1999-04-02,69.0,69.0,69.0,69.0,0.0,0.0
1999-04-05,69.0,69.0,69.0,69.0,0.0,0.0
1999-04-06,69.5,69.5,69.5,69.5,0.0,1.0
1999-04-07,69.5,69.5,69.5,69.5,0.0,0.0
1999-04-08,69.5,69.5,69.5,69.5,0.0,0.0
1999-04-09,69.5,69.5,69.5,69.5,0.0,0.0
1999-04-12,69.5,69.5,69.5,69.5,0.0,0.0
1999-04-13,70.5,69.5,70.0,69.5,0.0,1.0
1999-04-14,71.5,69.5,70.5,69.5,0.0,100000.0
1999-04-15,72.5,71.5,72.5,71.5,0.0,1.0
1999-04-16,75.5,72.5,75.5,72.5,0.0,1.0
1999-04-19,79.5,75.5,79.0,76.5,0.0,1.0
1999-04-20,79.5,78.5,79.0,78.5,0.0,1.0
1999-04-21,79.5,78.5,79.0,78.5,0.0,1.0
1999-04-22,79.5,79.0,79.5,79.5,0.0,1.0
1999-04-23,79.5,79.5,79.5,79.5,0.0,0.0
1999-04-26,80.5,79.5,80.5,79.5,0.0,1.0
1999-04-27,81.0,80.5,81.0,80.5,0.0,1.0
1999-04-28,85.0,81.0,85.0,81.5,0.0,1.0
1999-04-29,88.0,85.5,88.0,85.5,0.0,1.0
1999-04-30,90.0,87.5,90.0,87.5,0.0,1.0
1999-05-03,90.0,90.0,90.0,90.0,0.0,0.0
1999-05-04,95.5,90.5,95.0,90.5,0.0,1.0
1999-05-05,95.5,94.5,95.0,95.5,0.0,1.0
1999-05-06,95.5,94.0,94.0,95.5,0.0,1.0
1999-05-07,94.5,94.0,94.0,94.5,0.0,1.0
1999-05-10,94.5,90.0,90.0,94.5,0.0,1.0
1999-05-11,90.5,90.0,90.0,90.5,0.0,1.0
1999-05-12,90.5,90.0,90.0,90.5,0.0,1.0
1999-05-13,90.5,89.5,90.5,90.5,0.0,1.0
1999-05-14,90.5,90.0,90.0,90.5,0.0,1.0
1999-05-17,88.0,88.0,89.0,88.0,0.0,361.0
1999-05-18,91.0,88.0,90.0,88.0,0.0,47000.0
1999-05-19,92.0,92.0,90.5,92.0,0.0,7817.0
1999-05-20,90.5,90.5,90.5,90.5,0.0,0.0
1999-05-21,94.0,90.0,92.0,92.0,0.0,17133.0
1999-05-24,92.0,92.0,92.0,92.0,0.0,0.0
1999-05-25,92.5,91.5,92.5,92.0,0.0,252500.0
1999-05-26,92.0,92.0,93.0,92.0,0.0,296.0
1999-05-27,94.0,93.0,93.5,94.0,0.0,210000.0
1999-05-28,95.0,92.0,93.5,92.0,0.0,3753.0
1999-05-31,93.5,93.5,93.5,93.5,0.0,0.0
1999-06-01,93.5,93.5,93.5,93.5,0.0,0.0
1999-06-02,92.0,92.0,93.5,92.0,0.0,199.0
1999-06-03,95.0,95.0,93.5,95.0,0.0,122.0
1999-06-04,92.0,92.0,93.5,92.0,0.0,35000.0
1999-06-07,92.0,92.0,93.5,92.0,0.0,1786.0
1999-06-08,95.0,95.0,93.5,95.0,0.0,3500.0
1999-06-09,95.0,92.0,93.5,95.0,0.0,501710.0
1999-06-10,93.0,93.0,93.5,93.0,0.0,25000.0
1999-06-11,94.0,94.0,93.5,94.0,0.0,2750.0
1999-06-14,94.0,92.0,93.5,94.0,0.0,198.0
1999-06-15,95.0,93.0,93.5,93.0,0.0,200887.0
1999-06-16,95.0,92.0,93.5,94.5,0.0,11442.0
1999-06-17,93.5,93.5,93.5,93.5,0.0,0.0
1999-06-18,93.0,93.0,93.5,93.0,0.0,20000.0
1999-06-21,93.5,93.5,93.5,93.5,0.0,0.0
1999-06-22,95.0,95.0,93.5,95.0,0.0,10000.0
1999-06-23,92.0,92.0,93.5,92.0,0.0,114.0
1999-06-24,93.5,93.5,93.5,93.5,0.0,0.0
1999-06-25,94.5,93.0,93.0,94.5,0.0,11489.0
1999-06-28,94.5,92.0,93.25,92.0,0.0,10102.0
1999-06-29,93.25,93.25,93.25,93.25,0.0,0.0
1999-06-30,91.5,91.5,93.25,91.5,0.0,1568.0
1999-07-01,94.0,91.5,93.25,94.0,0.0,17400.0
1999-07-02,95.0,92.0,93.25,95.0,0.0,610500.0
1999-07-05,95.0,92.0,93.25,94.0,0.0,22083.0
1999-07-06,96.5,94.5,95.5,94.5,0.0,301157.0
1999-07-07,99.0,94.0,97.5,94.0,0.0,533341.0
1999-07-08,100.0,98.0,99.0,98.5,0.0,483870.0
1999-07-09,105.0,99.5,103.5,100.0,0.0,822000.0
1999-07-12,117.0,109.0,112.5,109.0,0.0,930140.0
1999-07-13,115.5,108.0,109.5,114.5,0.0,235143.0
1999-07-14,111.0,106.0,109.5,110.0,0.0,116426.0
1999-07-15,111.0,108.0,109.5,108.0,0.0,12239.0
1999-07-16,109.5,109.5,109.5,109.5,0.0,0.0
1999-07-19,110.0,107.0,109.0,107.0,0.0,23000.0
1999-07-20,112.0,107.0,110.5,107.0,0.0,61002.0
1999-07-21,111.0,107.0,109.0,109.0,0.0,65113.0
1999-07-22,110.0,106.0,108.5,110.0,0.0,15300.0
1999-07-23,108.0,104.0,106.5,106.0,0.0,33655.0
1999-07-26,109.0,104.0,106.5,109.0,0.0,10290.0
1999-07-27,109.0,104.0,106.5,104.0,0.0,33517.0
1999-07-28,109.0,104.0,106.5,104.0,0.0,56041.0
1999-07-29,108.5,106.0,107.0,108.0,0.0,30500.0
1999-07-30,109.0,105.0,107.0,105.0,0.0,19000.0
1999-08-02,108.0,105.0,106.5,106.0,0.0,37590.0
1999-08-03,119.0,106.0,118.0,108.0,0.0,348302.0
1999-08-04,129.0,118.0,123.5,120.0,0.0,429359.0
1999-08-05,131.0,123.0,125.0,128.0,0.0,317265.0
1999-08-06,129.0,124.0,126.5,128.0,0.0,227427.0
1999-08-09,134.0,126.0,128.5,130.0,0.0,682508.0
1999-08-10,131.0,122.0,123.5,130.0,0.0,135587.0
1999-08-11,126.0,121.0,122.5,125.0,0.0,64502.0
1999-08-12,125.0,119.0,122.0,125.0,0.0,146566.0
1999-08-13,124.0,119.0,121.5,123.0,0.0,15537.0
1999-08-16,124.0,119.0,121.5,123.0,0.0,24934.0
1999-08-17,124.0,120.0,121.5,124.0,0.0,11585.0
1999-08-18,124.0,119.0,121.5,123.0,0.0,28763.0
1999-08-19,124.0,123.0,121.5,123.0,0.0,11308.0
1999-08-20,124.0,119.0,121.5,119.0,0.0,56090.0
1999-08-23,128.5,121.0,125.5,124.0,0.0,149251.0
1999-08-24,130.0,125.0,127.0,128.0,0.0,132628.0
1999-08-25,129.0,125.0,127.0,129.0,0.0,58163.0
1999-08-26,129.0,125.0,127.0,125.0,0.0,173476.0
1999-08-27,134.0,129.25,132.5,130.0,0.0,128709.0
1999-08-30,132.5,132.5,132.5,132.5,0.0,0.0
1999-08-31,134.0,131.0,132.5,131.0,0.0,94342.0
1999-09-01,135.0,130.0,132.0,133.0,0.0,208002.0
1999-09-02,134.0,130.0,132.0,134.0,0.0,20834.0
1999-09-03,134.0,130.0,131.5,134.0,0.0,68923.0
1999-09-06,140.0,133.0,137.5,137.0,0.0,241582.0
1999-09-07,142.0,138.0,139.5,140.0,0.0,305120.0
1999-09-08,141.0,138.0,138.5,140.25,0.0,86051.0
1999-09-09,144.0,137.0,141.0,140.0,0.0,642473.0
1999-09-10,148.0,142.75,146.0,144.0,0.0,274630.0
1999-09-13,149.0,142.0,144.5,149.0,0.0,147511.0
1999-09-14,143.0,137.0,139.5,143.0,0.0,47786.0
1999-09-15,141.0,133.0,135.5,138.0,0.0,99933.0
1999-09-16,134.5,128.0,130.5,134.5,0.0,71390.0
1999-09-17,137.0,128.0,135.0,132.0,0.0,113520.0
1999-09-20,141.0,136.0,139.0,136.0,0.0,51953.0
1999-09-21,139.0,132.0,135.0,138.0,0.0,32001.0
1999-09-22,135.0,127.0,129.5,135.0,0.0,52543.0
1999-09-23,130.0,126.0,127.5,129.0,0.0,28364.0
1999-09-24,130.0,125.0,126.5,130.0,0.0,72450.0
1999-09-27,130.0,125.0,128.5,127.25,0.0,70915.0
1999-09-28,131.0,127.0,129.5,129.0,0.0,142738.0
1999-09-29,131.0,128.0,129.0,131.0,0.0,36472.0
1999-09-30,137.0,131.0,135.0,132.0,0.0,48305.0
1999-10-01,140.0,136.0,137.5,140.0,0.0,19135.0
1999-10-04,140.0,136.5,138.0,136.5,0.0,260058.0
1999-10-05,146.0,137.0,143.5,137.0,0.0,37140.0
1999-10-06,148.0,144.0,146.0,146.0,0.0,206558.0
1999-10-07,150.0,146.0,149.0,149.0,0.0,182869.0
1999-10-08,150.0,147.0,149.0,150.0,0.0,102726.0
1999-10-11,154.0,148.5,151.0,150.0,0.0,134304.0
1999-10-12,158.0,150.0,157.5,150.0,0.0,210095.0
1999-10-13,160.0,156.0,157.5,156.0,0.0,83387.0
1999-10-14,159.0,156.0,157.5,156.0,0.0,26739.0
1999-10-15,159.0,154.0,156.0,159.0,0.0,397326.0
1999-10-18,154.0,151.0,153.0,153.0,0.0,134353.0
1999-10-19,156.0,152.0,155.0,152.0,0.0,16452.0
1999-10-20,156.0,153.0,154.5,156.0,0.0,14811.0
1999-10-21,157.0,152.0,154.0,153.0,0.0,41866.0
1999-10-22,158.0,153.0,155.5,155.0,0.0,82136.0
1999-10-25,159.0,157.0,157.5,158.0,0.0,53527.0
1999-10-26,160.0,155.0,158.0,160.0,0.0,23527.0
1999-10-27,160.0,156.0,158.0,156.0,0.0,61725.0
1999-10-28,162.0,156.0,159.5,156.0,0.0,53172.0
1999-10-29,164.0,157.0,162.5,157.0,0.0,42311.0
1999-11-01,170.0,162.0,167.0,164.0,0.0,68811.0
1999-11-02,185.0,170.0,180.0,170.0,0.0,326382.0
1999-11-03,183.0,178.0,181.0,181.0,0.0,467280.0
1999-11-04,208.0,183.0,205.0,183.0,0.0,533134.0
1999-11-05,207.0,200.0,201.5,207.0,0.0,108397.0
1999-11-08,204.0,192.0,194.5,203.0,0.0,124162.0
1999-11-09,200.0,192.5,197.5,197.0,0.0,228805.0
1999-11-10,205.0,195.0,202.5,198.0,0.0,338463.0
1999-11-11,222.0,205.0,218.0,205.0,0.0,311428.0
1999-11-12,222.0,215.0,217.0,220.0,0.0,158932.0
1999-11-15,222.0,215.0,218.5,220.0,0.0,256374.0
1999-11-16,220.0,217.0,218.5,217.0,0.0,105881.0
1999-11-17,220.0,217.0,218.5,219.25,0.0,141634.0
1999-11-18,220.0,217.0,218.25,220.0,0.0,247303.0
1999-11-19,219.0,217.5,218.0,219.0,0.0,140489.0
1999-11-22,219.0,213.0,214.5,219.0,0.0,147760.0
1999-11-23,227.0,215.0,217.5,215.0,0.0,130282.0
1999-11-24,222.0,216.0,219.25,216.0,0.0,64014.0
1999-11-25,228.0,217.0,226.5,217.0,0.0,172448.0
1999-11-26,245.0,229.0,241.0,229.0,0.0,449346.0
1999-11-29,244.0,239.0,240.5,242.0,0.0,180839.0
1999-11-30,242.0,237.0,238.5,239.0,0.0,105006.0
1999-12-01,238.0,234.0,237.0,236.0,0.0,84089.0
1999-12-02,242.0,237.0,240.5,237.0,0.0,147866.0
1999-12-03,248.0,240.0,246.0,242.0,0.0,135254.0
1999-12-06,272.0,248.0,268.0,249.0,0.0,1109046.0
1999-12-07,273.0,268.0,271.5,270.0,0.0,281330.0
1999-12-08,282.0,270.0,279.0,272.25,0.0,285918.0
1999-12-09,283.0,275.0,278.0,280.0,0.0,475654.0
1999-12-10,282.0,276.0,278.0,279.25,0.0,210696.0
1999-12-13,284.5,276.0,278.5,279.0,0.0,178844.0
1999-12-14,280.0,275.0,277.5,280.0,0.0,183100.0
1999-12-15,279.0,267.0,271.0,275.0,0.0,1209039.0
1999-12-16,272.0,268.0,270.0,270.0,0.0,83024.0
1999-12-17,276.0,268.0,270.0,269.0,0.0,145099.0
1999-12-20,290.0,268.0,284.5,271.0,0.0,460426.0
1999-12-21,288.0,280.0,282.0,288.0,0.0,263502.0
1999-12-22,285.0,280.0,282.0,285.0,0.0,150176.0
1999-12-23,284.0,280.0,283.0,283.0,0.0,119936.0
1999-12-24,286.0,282.0,284.0,284.0,0.0,37434.0
1999-12-27,284.0,284.0,284.0,284.0,0.0,0.0
1999-12-28,284.0,284.0,284.0,284.0,0.0,0.0
1999-12-29,305.0,282.0,301.0,286.0,0.0,139637.0
1999-12-30,335.0,302.25,331.0,303.0,0.0,119329.0
1999-12-31,331.0,331.0,331.0,331.0,0.0,0.0
2000-01-03,331.0,331.0,331.0,331.0,0.0,0.0
2000-01-04,347.0,325.0,327.0,340.0,0.0,349057.0
2000-01-05,315.0,298.0,304.0,315.0,0.0,489213.0
2000-01-06,307.0,299.0,301.5,305.0,0.0,74612.0
2000-01-07,302.0,297.0,299.0,302.0,0.0,75740.0
2000-01-10,317.0,300.25,313.5,300.25,0.0,334227.0
2000-01-11,318.0,312.0,313.5,314.85,0.0,352040.0
2000-01-12,314.0,310.0,312.0,310.0,0.0,29787.0
2000-01-13,314.0,310.0,313.0,314.0,0.0,205538.0
2000-01-14,316.0,310.0,311.5,314.0,0.0,215570.0
2000-01-17,315.0,310.0,312.0,313.0,0.0,277748.0
2000-01-18,316.0,298.0,299.0,313.0,0.0,92998.0
2000-01-19,299.0,289.0,293.0,298.0,0.0,108821.0
2000-01-20,311.0,297.0,309.0,303.0,0.0,111015.0
2000-01-21,313.0,307.0,308.5,312.0,0.0,347240.0
2000-01-24,310.0,307.0,308.5,309.25,0.0,80002.0
2000-01-25,305.0,295.0,296.5,305.0,0.0,101056.0
2000-01-26,303.5,298.0,301.5,300.0,0.0,80420.0
2000-01-27,307.0,299.0,301.5,300.25,0.0,75830.0
2000-01-28,314.0,300.5,310.5,303.0,0.0,123903.0
2000-01-31,311.0,306.5,308.5,308.0,0.0,560973.0
2000-02-01,327.0,311.0,320.0,311.0,0.0,132627.0
2000-02-02,335.0,322.75,328.5,322.75,0.0,457811.0
2000-02-03,348.0,330.0,344.0,330.0,0.0,323909.0
2000-02-04,363.0,346.75,359.5,348.0,0.0,305469.0
2000-02-07,375.0,357.0,366.5,358.25,0.0,626339.0
2000-02-08,393.0,366.0,391.5,368.25,0.0,411703.0
2000-02-09,415.0,394.0,413.0,394.0,0.0,565756.0
2000-02-10,413.8,391.0,403.0,411.0,0.0,211447.0
2000-02-11,416.0,406.0,410.0,408.0,0.0,354517.0
2000-02-14,421.0,407.0,412.0,412.0,0.0,243237.0
2000-02-15,420.0,409.0,410.5,415.0,0.0,121831.0
2000-02-16,420.0,408.0,415.0,412.0,0.0,356028.0
2000-02-17,437.0,410.0,430.0,418.0,0.0,358348.0
2000-02-18,512.0,441.5,505.0,441.5,0.0,598666.0
2000-02-21,505.0,480.0,485.5,500.0,0.0,309595.0
2000-02-22,495.0,483.0,488.0,487.85,0.0,361549.0
2000-02-23,493.0,483.0,488.5,493.0,0.0,206540.0
2000-02-24,503.0,492.0,499.0,493.0,0.0,295428.0
2000-02-25,510.0,496.0,501.0,497.0,0.0,102930.0
2000-02-28,505.0,488.0,491.5,502.0,0.0,204804.0
2000-02-29,505.0,491.0,495.5,492.3,0.0,122709.0
2000-03-01,501.0,470.0,476.0,501.0,0.0,142198.0
2000-03-02,487.0,472.0,478.0,472.0,0.0,188346.0
2000-03-03,483.0,473.0,478.0,483.0,0.0,61619.0
2000-03-06,485.0,474.0,480.5,482.0,0.0,311719.0
2000-03-07,485.0,468.0,473.0,477.0,0.0,101605.0
2000-03-08,470.0,450.0,454.0,465.0,0.0,154387.0
2000-03-09,458.0,445.0,449.0,458.0,0.0,139813.0
2000-03-10,482.0,447.0,477.5,453.0,0.0,204652.0
2000-03-13,487.0,468.0,476.5,483.0,0.0,397864.0
2000-03-14,495.0,473.0,491.0,473.0,0.0,177438.0
2000-03-15,488.0,465.0,470.5,480.0,0.0,197908.0
2000-03-16,473.0,433.0,440.0,468.0,0.0,486568.0
2000-03-17,473.0,450.0,458.5,450.0,0.0,136193.0
2000-03-20,458.0,438.0,441.5,454.0,0.0,121582.0
2000-03-21,433.0,395.0,401.5,430.0,0.0,697688.0
2000-03-22,440.0,405.0,430.0,413.0,0.0,2330063.0
2000-03-23,436.0,427.0,431.0,427.0,0.0,69896.0
2000-03-24,435.0,425.0,432.5,435.0,0.0,63263.0
2000-03-27,438.0,430.0,434.0,430.0,0.0,254552.0
2000-03-28,440.0,432.0,436.0,440.0,0.0,65641.0
2000-03-29,440.0,430.0,435.0,430.0,0.0,81123.0
2000-03-30,436.0,400.0,406.5,436.0,0.0,325598.0
2000-03-31,407.0,385.0,403.5,395.0,0.0,1011083.0
2000-04-03,420.0,403.0,409.0,406.65,0.0,75782.0
2000-04-04,407.0,351.0,353.5,405.0,0.0,183987.0
2000-04-05,370.0,335.0,375.0,355.0,0.0,80184.0
2000-04-06,420.0,370.0,410.0,373.8,0.0,167195.0
2000-04-07,421.0,410.0,413.5,415.0,0.0,119241.0
2000-04-10,428.0,415.0,420.0,416.65,0.0,171108.0
2000-04-11,417.6,390.0,395.0,415.0,0.0,134568.0
2000-04-12,400.0,388.0,392.0,390.0,0.0,62722.0
2000-04-13,384.5,350.0,380.0,380.0,0.0,122569.0
2000-04-14,380.0,359.0,366.0,375.0,0.0,158557.0
2000-04-17,347.0,310.0,342.0,325.0,0.0,178842.0
2000-04-18,365.0,340.0,353.0,347.0,0.0,114782.0
2000-04-19,385.0,365.0,376.5,365.0,0.0,90840.0
2000-04-20,390.0,372.0,386.5,379.0,0.0,34908.0
2000-04-21,386.5,386.5,386.5,386.5,0.0,0.0
2000-04-24,386.5,386.5,386.5,386.5,0.0,0.0
2000-04-25,385.0,375.0,379.0,377.0,0.0,81739.0
2000-04-26,390.0,382.0,385.0,386.5,0.0,47792.0
2000-04-27,388.0,372.0,377.0,388.0,0.0,94346.0
2000-04-28,390.0,372.0,389.5,382.0,0.0,220284.0
2000-05-01,389.5,389.5,389.5,389.5,0.0,0.0
2000-05-02,392.0,383.0,385.0,386.0,0.0,62917.0
2000-05-03,387.0,377.0,383.5,387.0,0.0,27953.0
2000-05-04,388.0,379.0,383.5,379.0,0.0,16702.0
2000-05-05,388.0,379.0,383.5,387.5,0.0,21222.0
2000-05-08,388.0,379.0,383.5,379.0,0.0,35965.0
2000-05-09,385.0,375.0,380.0,384.0,0.0,28626.0
2000-05-10,389.0,372.0,376.0,378.0,0.0,72273.0
2000-05-11,370.0,358.0,368.0,365.0,0.0,94007.0
2000-05-12,378.0,365.0,373.0,374.0,0.0,14470.0
2000-05-15,378.0,357.0,369.0,368.0,0.0,78823.0
2000-05-16,373.0,362.0,366.5,365.0,0.0,62891.0
2000-05-17,370.0,350.0,355.0,369.0,0.0,91287.0
2000-05-18,348.0,335.0,342.5,345.0,0.0,141051.0
2000-05-19,341.5,320.0,326.0,339.5,0.0,68408.0
2000-05-22,322.0,303.0,309.0,317.0,0.0,134541.0
2000-05-23,311.75,302.0,307.0,308.0,0.0,60426.0
2000-05-24,298.0,280.0,286.0,295.0,0.0,118638.0
2000-05-25,301.0,285.0,298.0,289.0,0.0,96126.0
2000-05-26,305.0,295.0,301.0,301.0,0.0,10015.0
2000-05-29,301.0,301.0,301.0,301.0,0.0,0.0
2000-05-30,311.0,297.0,310.5,305.75,0.0,66670.0
2000-05-31,327.0,315.0,321.5,315.0,0.0,46405.0
2000-06-01,325.0,317.0,323.0,323.75,0.0,26301.0
2000-06-02,352.0,325.0,343.0,331.25,0.0,183367.0
2000-06-05,365.0,351.5,357.0,351.5,0.0,86571.0
2000-06-06,370.0,359.0,363.5,360.75,0.0,39406.0
2000-06-07,370.0,360.0,367.5,360.5,0.0,29981.0
2000-06-08,370.0,365.0,367.5,365.5,0.0,30612.0
2000-06-09,370.0,365.0,367.5,369.0,0.0,25918.0
2000-06-12,377.0,365.0,372.0,370.0,0.0,69720.0
2000-06-13,374.0,365.0,369.5,369.0,0.0,51239.0
2000-06-14,382.0,372.0,378.0,374.0,0.0,66055.0
2000-06-15,389.0,374.0,385.0,382.0,0.0,84737.0
2000-06-16,400.0,385.0,395.0,390.0,0.0,23361.0
2000-06-19,400.0,390.0,396.0,400.0,0.0,46959.0
2000-06-20,414.0,400.0,408.0,405.0,0.0,33258.0
2000-06-21,413.0,400.0,404.0,413.0,0.0,56615.0
2000-06-22,408.0,400.0,402.5,408.0,0.0,21696.0
2000-06-23,400.0,388.0,392.5,395.0,0.0,65996.0
2000-06-26,396.0,385.0,385.5,396.0,0.0,38727.0
2000-06-27,388.0,378.9,382.5,382.0,0.0,22426.0
2000-06-28,385.0,375.0,380.0,378.0,0.0,28381.0
2000-06-29,383.0,375.0,378.5,383.0,0.0,18711.0
2000-06-30,381.0,365.0,377.0,380.0,0.0,437034.0
2000-07-03,381.0,368.0,376.5,373.0,0.0,249568.0
2000-07-04,380.0,373.0,376.5,373.0,0.0,34400.0
2000-07-05,380.0,373.0,376.5,380.0,0.0,89335.0
2000-07-06,380.0,373.0,376.5,380.0,0.0,112033.0
2000-07-07,384.0,373.0,380.5,382.0,0.0,210777.0
2000-07-10,390.0,377.0,386.0,384.0,0.0,429956.0
2000-07-11,390.0,382.0,386.0,389.2,0.0,3782.0
2000-07-12,392.0,381.0,387.0,383.0,0.0,42426.0
2000-07-13,393.0,383.0,389.0,383.0,0.0,21527.0
2000-07-14,406.0,385.0,403.0,385.0,0.0,43084.0
2000-07-17,415.0,399.0,409.5,406.0,0.0,55500.0
2000-07-18,413.0,405.0,409.0,406.0,0.0,19047.0
2000-07-19,413.0,405.0,409.0,413.0,0.0,24225.0
2000-07-20,413.0,404.0,408.0,404.0,0.0,20982.0
2000-07-21,413.0,401.0,405.0,412.0,0.0,84213.0
2000-07-24,409.0,401.0,404.5,409.0,0.0,15972.0
2000-07-25,405.0,392.0,396.5,397.0,0.0,45479.0
2000-07-26,400.0,393.0,395.0,393.0,0.0,26887.0
2000-07-27,397.0,385.0,388.5,393.0,0.0,45057.0
2000-07-28,390.0,385.0,387.0,385.7,0.0,20510.0
2000-07-31,386.0,372.0,375.0,386.0,0.0,44633.0
2000-08-01,385.0,377.0,381.5,379.0,0.0,38881.0
2000-08-02,388.0,378.0,384.5,385.0,0.0,52828.0
2000-08-03,390.0,380.0,383.0,389.0,0.0,17483.0
2000-08-04,388.0,380.0,384.0,386.0,0.0,10081.0
2000-08-07,388.0,380.0,384.0,388.0,0.0,26427.0
2000-08-08,389.0,380.0,385.0,389.0,0.0,139231.0
2000-08-09,395.0,382.0,390.5,382.0,0.0,51684.0
2000-08-10,395.0,386.0,390.5,394.0,0.0,30000.0
2000-08-11,395.0,386.0,390.0,395.0,0.0,46756.0
2000-08-14,395.0,385.0,389.0,394.0,0.0,503150.0
2000-08-15,393.0,386.0,389.5,393.0,0.0,155595.0
2000-08-16,393.0,386.0,389.5,392.0,0.0,307194.0
2000-08-17,393.0,386.0,389.5,392.5,0.0,306751.0
2000-08-18,399.0,391.5,395.0,391.5,0.0,121828.0
2000-08-21,398.0,392.0,395.5,392.0,0.0,49599.0
2000-08-22,399.0,393.0,397.0,397.0,0.0,71181.0
2000-08-23,399.0,395.0,397.0,399.0,0.0,38158.0
2000-08-24,400.0,395.0,398.0,395.0,0.0,18647.0
2000-08-25,400.0,396.0,397.0,400.0,0.0,27920.0
2000-08-28,397.0,397.0,397.0,397.0,0.0,0.0
2000-08-29,407.0,396.0,403.0,398.0,0.0,366299.0
2000-08-30,407.0,399.0,404.0,406.0,0.0,73440.0
2000-08-31,442.0,403.0,440.0,403.0,0.0,99998.0
2000-09-01,489.0,450.0,471.0,454.0,0.0,116936.0
2000-09-04,480.0,470.0,475.5,475.0,0.0,115679.0
2000-09-05,480.0,467.0,474.0,480.0,0.0,92151.0
2000-09-06,482.0,470.0,477.5,477.0,0.0,72854.0
2000-09-07,482.0,473.0,478.0,473.0,0.0,94974.0
2000-09-08,482.0,475.0,478.5,482.0,0.0,234220.0
2000-09-11,482.0,474.0,477.0,475.0,0.0,57119.0
2000-09-12,480.0,472.0,476.0,474.72,0.0,26071.0
2000-09-13,480.0,472.0,476.0,477.0,0.0,30783.0
2000-09-14,480.0,472.0,476.0,473.0,0.0,153593.0
2000-09-15,480.0,472.0,476.0,478.0,0.0,42287.0
2000-09-18,478.0,468.0,469.0,472.0,0.0,74570.0
2000-09-19,466.0,440.0,447.5,466.0,0.0,80438.0
2000-09-20,457.0,445.0,452.0,452.0,0.0,61307.0
2000-09-21,457.0,444.0,448.0,448.0,0.0,65553.0
2000-09-22,441.0,428.0,437.5,437.0,0.0,82162.0
2000-09-25,450.0,437.0,447.0,440.0,0.0,56544.0
2000-09-26,452.0,440.0,442.5,450.0,0.0,36791.0
2000-09-27,440.0,435.0,437.5,435.0,0.0,54859.0
2000-09-28,445.0,432.0,434.0,435.0,0.0,49474.0
2000-09-29,438.0,430.0,435.0,438.0,0.0,78444.0
2000-10-02,440.0,430.6,432.5,435.0,0.0,253991.0
2000-10-03,435.0,425.0,429.0,434.5,0.0,32271.0
2000-10-04,430.0,420.0,424.5,423.0,0.0,84707.0
2000-10-05,427.0,417.0,420.0,426.0,0.0,21364.0
2000-10-06,423.0,415.0,419.5,422.28,0.0,55627.0
2000-10-09,420.0,410.0,412.5,420.0,0.0,32785.0
2000-10-10,417.0,407.0,411.5,410.0,0.0,725329.0
2000-10-11,410.0,397.0,400.0,410.0,0.0,44160.0
2000-10-12,412.0,397.75,407.5,397.75,0.0,47580.0
2000-10-13,405.0,397.0,402.5,399.75,0.0,88686.0
2000-10-16,415.0,403.0,409.5,403.0,0.0,194660.0
2000-10-17,413.0,405.0,406.0,412.16,0.0,39011.0
2000-10-18,407.0,398.0,400.0,400.75,0.0,124490.0
2000-10-19,419.0,398.0,415.5,403.0,0.0,181197.0
2000-10-20,420.0,411.0,416.0,419.0,0.0,93719.0
2000-10-23,420.0,412.0,416.0,420.0,0.0,30543.0
2000-10-24,420.0,416.0,416.0,420.0,0.0,96227.0
2000-10-25,420.0,412.0,415.5,412.0,0.0,154025.0
2000-10-26,418.0,413.0,415.5,413.0,0.0,23793.0
2000-10-27,420.0,413.0,416.5,417.0,0.0,89009.0
2000-10-30,422.0,413.0,418.5,420.0,0.0,20113.0
2000-10-31,422.0,415.0,419.5,422.0,0.0,37289.0
2000-11-01,430.0,420.0,426.0,420.0,0.0,54641.0
2000-11-02,435.0,426.0,432.0,429.0,0.0,1208752.0
2000-11-03,434.25,429.0,431.0,434.25,0.0,58074.0
2000-11-06,437.0,429.0,433.5,433.0,0.0,60563.0
2000-11-07,443.0,431.0,439.0,436.16,0.0,149276.0
2000-11-08,453.0,441.0,448.5,443.75,0.0,90997.0
2000-11-09,449.0,436.0,439.5,445.0,0.0,41569.0
2000-11-10,444.0,436.0,439.5,442.8,0.0,29894.0
2000-11-13,440.0,425.0,426.0,440.0,0.0,62996.0
2000-11-14,440.0,425.0,435.5,425.0,0.0,43576.0
2000-11-15,453.0,436.7,449.5,436.7,0.0,75074.0
2000-11-16,452.25,445.75,448.5,452.25,0.0,45422.0
2000-11-17,450.0,440.75,445.0,449.4,0.0,29866.0
2000-11-20,450.0,442.0,443.5,447.2,0.0,44681.0
2000-11-21,440.0,433.0,435.5,435.0,0.0,39038.0
2000-11-22,432.0,405.0,412.5,432.0,0.0,104321.0
2000-11-23,410.0,400.0,403.5,406.2,0.0,152651.0
2000-11-24,407.25,400.0,402.0,406.2,0.0,115471.0
2000-11-27,418.0,401.75,414.0,404.0,0.0,163335.0
2000-11-28,423.0,410.0,414.5,418.0,0.0,98004.0
2000-11-29,413.0,400.0,404.0,406.0,0.0,103578.0
2000-11-30,400.0,388.0,390.0,399.6,0.0,62151.0
2000-12-01,410.0,388.0,407.5,388.0,0.0,51355.0
2000-12-04,401.4,394.0,397.0,400.0,0.0,32043.0
2000-12-05,415.6,393.0,415.5,394.0,0.0,41970.0
2000-12-06,430.0,420.0,424.0,423.0,0.0,90584.0
2000-12-07,420.0,408.0,411.0,417.0,0.0,41826.0
2000-12-08,420.0,407.0,418.5,407.5,0.0,35129.0
2000-12-11,435.0,423.0,432.5,426.0,0.0,61567.0
2000-12-12,435.0,428.0,431.5,435.0,0.0,120475.0
2000-12-13,435.0,427.0,428.5,431.25,0.0,36930.0
2000-12-14,425.0,410.0,412.5,425.0,0.0,45815.0
2000-12-15,409.4,399.6,402.0,409.4,0.0,25232.0
2000-12-18,411.0,399.0,411.0,399.0,0.0,67762.0
2000-12-19,415.0,408.0,411.0,413.0,0.0,25932.0
2000-12-20,415.0,399.75,410.5,409.0,0.0,61836.0
2000-12-21,410.0,402.0,407.0,405.0,0.0,33229.0
2000-12-22,410.0,404.6,407.0,408.5,0.0,8931.0
2000-12-25,407.0,407.0,407.0,407.0,0.0,0.0
2000-12-26,407.0,407.0,407.0,407.0,0.0,0.0
2000-12-27,410.0,404.0,407.0,410.0,0.0,60227.0
2000-12-28,410.0,410.0,410.5,410.0,0.0,13315.0
2000-12-29,414.0,409.0,413.0,414.0,0.0,17855.0
2001-01-01,413.0,413.0,413.0,413.0,0.0,0.0
2001-01-02,414.0,406.0,407.5,413.6,0.0,16908.0
2001-01-03,408.0,395.0,396.5,404.0,0.0,52061.0
2001-01-04,412.0,405.75,406.5,406.0,0.0,27197.0
2001-01-05,412.0,403.0,406.5,408.0,0.0,17564.0
2001-01-08,408.0,396.0,399.0,403.0,0.0,26693.0
2001-01-09,403.0,393.0,395.0,403.0,0.0,105631.0
2001-01-10,385.0,376.0,379.5,384.0,0.0,47547.0
2001-01-11,392.0,381.5,388.5,381.5,0.0,52178.0
2001-01-12,392.0,385.0,389.0,392.0,0.0,16691.0
2001-01-15,400.0,386.8,393.0,386.8,0.0,47269.0
2001-01-16,398.0,392.0,395.0,397.0,0.0,32060.0
2001-01-17,405.0,390.0,402.5,397.0,0.0,11924.0
2001-01-18,409.25,400.6,406.5,400.6,0.0,56238.0
2001-01-19,417.0,408.0,412.5,408.0,0.0,12466.0
2001-01-22,420.0,408.0,417.5,409.0,0.0,36479.0
2001-01-23,418.0,412.0,414.5,418.0,0.0,3507.0
2001-01-24,420.0,412.0,416.5,416.4,0.0,211144.0
2001-01-25,419.0,414.0,415.5,414.6,0.0,17391.0
2001-01-26,418.0,410.0,414.0,412.0,0.0,106012.0
2001-01-29,418.0,410.0,414.0,418.0,0.0,42527.0
2001-01-30,418.0,411.0,414.5,411.0,0.0,164524.0
2001-01-31,419.0,408.0,413.0,417.0,0.0,172417.0
2001-02-01,416.0,408.0,412.5,416.0,0.0,11132.0
2001-02-02,416.0,409.0,412.5,416.0,0.0,15417.0
2001-02-05,414.0,408.0,411.0,413.25,0.0,35686.0
2001-02-06,412.0,408.0,410.0,408.0,0.0,83445.0
2001-02-07,411.0,395.0,401.0,411.0,0.0,72635.0
2001-02-08,405.0,398.0,401.5,398.0,0.0,136194.0
2001-02-09,404.0,393.8,396.5,398.75,0.0,39058.0
2001-02-12,400.0,388.0,392.5,396.8,0.0,57673.0
2001-02-13,397.0,390.0,393.5,397.0,0.0,322597.0
2001-02-14,397.0,388.0,391.5,391.8,0.0,62411.0
2001-02-15,394.0,389.0,391.0,389.0,0.0,17863.0
2001-02-16,393.0,382.0,384.0,393.0,0.0,21529.0
2001-02-19,387.0,380.0,385.0,386.0,0.0,31384.0
2001-02-20,387.0,374.0,378.5,386.0,0.0,36144.0
2001-02-21,373.25,363.35,366.5,372.0,0.0,57659.0
2001-02-22,363.0,353.0,356.5,359.0,0.0,76078.0
2001-02-23,359.0,353.6,356.0,354.8,0.0,107933.0
2001-02-26,364.0,353.6,361.5,353.6,0.0,109390.0
2001-02-27,368.25,363.0,366.0,363.0,0.0,2860.0
2001-02-28,370.0,360.0,364.5,361.0,0.0,169232.0
2001-03-01,369.0,358.8,361.5,367.8,0.0,63623.0
2001-03-02,363.25,358.0,361.0,359.5,0.0,25700.0
2001-03-05,364.0,358.5,362.0,358.6,0.0,44132.0
2001-03-06,365.25,360.0,363.0,360.4,0.0,33782.0
2001-03-07,366.0,363.0,363.0,363.0,0.0,24265.0
2001-03-08,366.0,360.75,363.0,365.25,0.0,11983.0
2001-03-09,365.25,356.0,357.5,360.0,0.0,30229.0
2001-03-12,355.0,330.0,335.0,355.0,0.0,108375.0
2001-03-13,324.25,313.0,319.0,321.0,0.0,98142.0
2001-03-14,323.25,308.2,315.5,323.25,0.0,95464.0
2001-03-15,316.0,313.0,315.0,313.0,0.0,150086.0
2001-03-16,317.0,313.0,315.0,313.4,0.0,213994.0
2001-03-19,316.0,297.0,302.0,312.0,0.0,67864.0
2001-03-20,306.0,297.0,302.0,306.0,0.0,22929.0
2001-03-21,302.0,286.25,290.5,296.0,0.0,32327.0
2001-03-22,288.0,265.0,266.0,288.0,0.0,83746.0
2001-03-23,270.0,262.0,265.0,270.0,0.0,41897.0
2001-03-26,270.0,263.0,266.0,267.0,0.0,55488.0
2001-03-27,269.0,258.0,263.0,268.0,0.0,219643.0
2001-03-28,266.25,257.0,261.0,266.2,0.0,59221.0
2001-03-29,257.0,251.0,254.0,256.0,0.0,49082.0
2001-03-30,257.0,250.96,254.0,257.0,0.0,18707.0
2001-04-02,259.4,250.0,257.5,252.0,0.0,21382.0
2001-04-03,262.0,257.0,257.5,257.6,0.0,73253.0
2001-04-04,257.0,249.0,255.5,249.0,0.0,71955.0
2001-04-05,260.0,255.0,257.5,256.0,0.0,43739.0
2001-04-06,265.0,260.0,262.5,264.6,0.0,43262.0
2001-04-09,265.0,250.0,262.5,260.6,0.0,73026.0
2001-04-10,282.0,263.0,279.0,265.0,0.0,73710.0
2001-04-11,290.0,280.0,282.5,282.0,0.0,17873.0
2001-04-12,290.0,281.0,284.0,290.0,0.0,23518.0
2001-04-13,284.0,284.0,284.0,284.0,0.0,0.0
2001-04-16,284.0,284.0,284.0,284.0,0.0,0.0
2001-04-17,290.0,280.0,286.0,286.0,0.0,108266.0
2001-04-18,302.0,283.0,302.5,289.0,0.0,38182.0
2001-04-19,313.0,303.0,308.0,309.0,0.0,28257.0
2001-04-20,313.0,305.0,309.0,305.25,0.0,173115.0
2001-04-23,313.0,305.0,307.5,312.0,0.0,48608.0
2001-04-24,310.0,305.5,307.5,309.0,0.0,113973.0
2001-04-25,310.0,305.6,308.5,305.6,0.0,8822.0
2001-04-26,320.0,311.0,317.5,311.0,0.0,79200.0
2001-04-27,320.0,313.0,317.0,319.25,0.0,26000.0
2001-04-30,320.0,314.0,318.0,319.2,0.0,49093.0
2001-05-01,320.0,315.75,317.0,320.0,0.0,10509.0
2001-05-02,322.0,314.0,318.0,321.0,0.0,311624.0
2001-05-03,319.25,315.75,317.0,315.75,0.0,12689.0
2001-05-04,319.0,312.5,315.5,315.75,0.0,19870.0
2001-05-07,315.5,315.5,315.5,315.5,0.0,0.0
2001-05-08,319.0,312.0,316.0,318.0,0.0,31749.0
2001-05-09,322.0,313.0,316.0,313.75,0.0,100196.0
2001-05-10,320.0,314.0,317.0,318.2,0.0,146000.0
2001-05-11,319.25,314.0,315.5,319.25,0.0,14777.0
2001-05-14,318.0,314.0,315.5,314.0,0.0,31963.0
2001-05-15,318.0,314.0,315.5,317.0,0.0,7233.0
2001-05-16,318.0,313.0,314.0,317.0,0.0,28168.0
2001-05-17,320.0,313.2,316.0,314.6,0.0,36221.0
2001-05-18,321.25,314.0,318.5,314.0,0.0,81837.0
2001-05-21,323.0,317.75,319.0,321.2,0.0,18922.0
2001-05-22,323.0,317.0,321.0,322.0,0.0,28021.0
2001-05-23,325.0,319.0,322.0,324.0,0.0,23240.0
2001-05-24,322.0,316.0,319.5,316.0,0.0,16465.0
2001-05-25,324.0,319.0,321.0,321.5,0.0,7902.0
2001-05-28,321.0,321.0,321.0,321.0,0.0,0.0
2001-05-29,325.0,319.0,320.0,319.0,0.0,13922.0
2001-05-30,320.0,310.25,310.5,320.0,0.0,14451.0
2001-05-31,310.0,304.0,306.0,310.0,0.0,13403.0
2001-06-01,309.0,303.0,306.0,309.0,0.0,16642.0
2001-06-04,310.0,302.0,306.0,309.0,0.0,18604.0
2001-06-05,310.0,306.0,311.0,310.0,0.0,11237.0
2001-06-06,322.0,312.0,317.0,314.0,0.0,12729.0
2001-06-07,319.0,314.0,317.5,319.0,0.0,7790.0
2001-06-08,323.0,315.0,318.5,321.0,0.0,21613.0
2001-06-11,323.0,314.0,318.5,322.0,0.0,991402.0
2001-06-12,322.0,311.0,313.0,322.0,0.0,57798.0
2001-06-13,324.25,316.0,320.5,318.0,0.0,87402.0
2001-06-14,321.2,315.0,315.5,318.0,0.0,18901.0
2001-06-15,317.0,313.0,314.0,313.0,0.0,19887.0
2001-06-18,318.0,310.0,313.5,311.0,0.0,29099.0
2001-06-19,317.55,310.0,313.5,310.0,0.0,5209.0
2001-06-20,313.0,298.0,301.5,313.0,0.0,42882.0
2001-06-21,304.0,298.0,302.0,298.75,0.0,51216.0
2001-06-22,305.0,296.0,302.0,305.0,0.0,38187.0
2001-06-25,304.0,297.75,300.5,299.0,0.0,40052.0
2001-06-26,303.0,290.0,294.5,303.0,0.0,16856.0
2001-06-27,299.0,290.0,294.5,297.75,0.0,29668.0
2001-06-28,297.0,290.0,294.0,290.0,0.0,12954.0
2001-06-29,299.0,290.0,291.5,297.0,0.0,164529.0
2001-07-02,295.0,288.0,291.5,293.0,0.0,159631.0
2001-07-03,294.25,286.0,289.0,288.8,0.0,7155.0
2001-07-04,291.0,285.0,288.5,285.75,0.0,20370.0
2001-07-05,288.0,273.0,277.5,282.0,0.0,19161.0
2001-07-06,273.25,260.0,262.5,273.25,0.0,59640.0
2001-07-09,260.0,248.0,252.5,256.2,0.0,26530.0
2001-07-10,256.3,250.0,252.5,255.0,0.0,25940.0
2001-07-11,254.0,245.0,249.5,246.0,0.0,19339.0
2001-07-12,258.8,251.0,257.5,257.25,0.0,11737.0
2001-07-13,259.0,255.0,257.0,259.0,0.0,2336.0
2001-07-16,260.0,255.0,257.5,259.0,0.0,19414.0
2001-07-17,260.0,258.0,258.0,258.0,0.0,98607.0
2001-07-18,260.0,256.0,258.0,256.0,0.0,19943.0
2001-07-19,259.0,253.3,256.0,256.0,0.0,23541.0
2001-07-20,258.0,253.75,256.0,258.0,0.0,2071.0
2001-07-23,260.0,253.0,256.5,258.25,0.0,10709.0
2001-07-24,259.25,253.75,256.5,258.0,0.0,8763.0
2001-07-25,258.0,238.0,242.0,258.0,0.0,52710.0
2001-07-26,246.0,230.0,234.0,239.0,0.0,32199.0
2001-07-27,237.0,231.0,234.0,237.0,0.0,9882.0
2001-07-30,238.0,230.0,234.0,232.0,0.0,21103.0
2001-07-31,230.0,229.0,233.0,230.0,0.0,11554.0
2001-08-01,238.0,229.25,235.5,238.0,0.0,23073.0
2001-08-02,243.0,236.5,241.5,237.5,0.0,30551.0
2001-08-03,245.0,240.0,242.5,244.4,0.0,19087.0
2001-08-06,245.0,240.0,242.5,240.0,0.0,31575.0
2001-08-07,240.0,233.75,236.0,240.0,0.0,38737.0
2001-08-08,237.0,229.0,233.0,231.0,0.0,8020.0
2001-08-09,235.25,227.0,230.0,235.25,0.0,24518.0
2001-08-10,231.0,225.75,228.0,231.0,0.0,7371.0
2001-08-13,229.0,224.0,226.5,225.0,0.0,45587.0
2001-08-14,227.0,218.0,222.0,227.0,0.0,35833.0
2001-08-15,223.0,215.0,219.5,218.75,0.0,38529.0
2001-08-16,215.0,208.0,212.0,215.0,0.0,11723.0
2001-08-17,214.0,202.0,204.5,214.0,0.0,99266.0
2001-08-20,207.0,194.0,198.5,200.0,0.0,33253.0
2001-08-21,202.0,195.75,198.5,200.0,0.0,17054.0
2001-08-22,202.0,195.0,198.0,201.2,0.0,29903.0
2001-08-23,200.2,195.0,198.0,195.75,0.0,2957.0
2001-08-24,201.0,195.0,198.5,200.0,0.0,8288.0
2001-08-27,198.5,198.5,198.5,198.5,0.0,0.0
2001-08-28,201.0,197.0,199.5,199.5,0.0,20446.0
2001-08-29,201.0,198.0,200.0,200.5,0.0,12312.0
2001-08-30,201.0,193.0,196.0,198.0,0.0,35885.0
2001-08-31,196.75,192.0,195.0,192.0,0.0,10238.0
2001-09-03,198.0,187.0,193.0,192.75,0.0,28482.0
2001-09-04,196.0,190.0,192.5,190.6,0.0,37487.0
2001-09-05,194.0,187.0,189.5,194.0,0.0,19049.0
2001-09-06,187.4,178.0,182.0,187.4,0.0,17243.0
2001-09-07,184.0,178.0,181.5,179.0,0.0,582515.0
2001-09-10,179.0,167.0,171.5,172.0,0.0,37396.0
2001-09-11,174.0,161.0,162.5,171.5,0.0,20361.0
2001-09-12,155.0,152.0,154.0,155.0,0.0,20421.0
2001-09-13,154.5,153.0,152.5,154.5,0.0,2701.0
2001-09-14,155.0,150.0,152.5,150.0,0.0,15414.0
2001-09-17,150.6,148.0,152.5,150.5,0.0,16704.0
2001-09-18,155.0,145.0,149.0,152.5,0.0,188743.0
2001-09-19,151.5,143.0,145.0,151.5,0.0,32541.0
2001-09-20,148.0,130.0,130.0,148.0,0.0,27055.0
2001-09-21,129.0,105.0,112.5,124.75,0.0,51385.0
2001-09-24,133.25,110.25,130.0,110.25,0.0,79365.0
2001-09-25,143.3,135.7,140.0,137.0,0.0,105772.0
2001-09-26,143.3,133.0,132.5,143.3,0.0,159650.0
2001-09-27,135.0,125.0,128.0,133.0,0.0,17680.0
2001-09-28,137.0,130.0,134.5,132.0,0.0,55151.0
2001-10-01,138.0,132.0,135.0,136.4,0.0,28912.0
2001-10-02,148.0,138.0,145.0,139.0,0.0,38461.0
2001-10-03,146.0,136.0,140.5,141.0,0.0,31467.0
2001-10-04,147.0,140.0,143.5,145.3,0.0,34360.0
2001-10-05,148.0,141.0,144.0,146.25,0.0,51139.0
2001-10-08,146.75,136.0,140.5,146.75,0.0,3779.0
2001-10-09,147.0,138.0,142.0,138.0,0.0,13334.0
2001-10-10,147.0,137.0,143.5,146.0,0.0,30762.0
2001-10-11,175.0,147.0,167.5,147.0,0.0,168678.0
2001-10-12,170.0,162.75,165.5,170.0,0.0,17581.0
2001-10-15,167.0,160.0,163.5,161.0,0.0,99777.0
2001-10-16,172.0,167.0,168.5,169.0,0.0,110715.0
2001-10-17,186.0,167.0,180.5,167.0,0.0,84145.0
2001-10-18,183.0,175.0,178.0,176.0,0.0,33627.0
2001-10-19,181.0,170.45,174.5,181.0,0.0,22751.0
2001-10-22,178.0,170.0,175.0,178.0,0.0,17537.0
2001-10-23,183.0,174.0,178.0,181.0,0.0,44510.0
2001-10-24,183.0,174.0,176.5,183.0,0.0,91187.0
2001-10-25,180.0,173.5,175.0,179.0,0.0,40034.0
2001-10-26,182.0,173.0,180.0,179.25,0.0,66025.0
2001-10-29,183.0,177.0,180.0,181.25,0.0,77199.0
2001-10-30,179.0,168.0,171.0,179.0,0.0,14740.0
2001-10-31,178.0,168.0,174.0,168.0,0.0,33512.0
2001-11-01,175.2,170.0,174.0,172.0,0.0,49437.0
2001-11-02,176.0,169.0,173.0,176.0,0.0,142188.0
2001-11-05,174.4,168.8,171.0,170.0,0.0,51462.0
2001-11-06,171.5,166.0,168.5,171.5,0.0,18038.0
2001-11-07,171.0,166.0,168.5,169.5,0.0,21870.0
2001-11-08,170.0,166.5,168.5,170.0,0.0,10558.0
2001-11-09,169.5,166.0,168.5,169.5,0.0,6167.0
2001-11-12,170.0,165.0,163.5,170.0,0.0,64009.0
2001-11-13,165.0,160.0,163.0,165.0,0.0,2250.0
2001-11-14,167.0,165.0,166.0,165.0,0.0,131403.0
2001-11-15,167.0,165.0,167.0,167.0,0.0,34949.0
2001-11-16,170.0,165.0,171.0,169.0,0.0,27221.0
2001-11-19,183.0,174.0,177.5,174.0,0.0,60643.0
2001-11-20,195.0,179.4,189.0,179.5,0.0,81616.0
2001-11-21,191.0,184.0,186.0,186.0,0.0,44079.0
2001-11-22,188.25,183.0,186.0,183.75,0.0,11456.0
2001-11-23,189.0,186.0,186.0,188.25,0.0,10772.0
2001-11-26,189.0,183.0,186.0,188.0,0.0,30098.0
2001-11-27,188.2,183.0,186.0,188.2,0.0,20127.0
2001-11-28,188.2,181.0,181.0,188.2,0.0,45582.0
2001-11-29,181.0,176.0,179.5,178.75,0.0,33975.0
2001-11-30,180.5,178.0,179.5,178.0,0.0,3897.0
2001-12-01,179.5,179.5,179.5,179.5,0.0,0.0
2001-12-03,180.0,173.75,176.5,175.75,0.0,13934.0
2001-12-04,179.25,173.8,176.5,174.0,0.0,6317.0
2001-12-05,180.0,175.0,178.0,179.0,0.0,19798.0
2001-12-06,190.0,178.0,186.5,183.0,0.0,14513.0
2001-12-07,190.0,183.75,186.5,190.0,0.0,6851.0
2001-12-10,189.0,183.0,185.0,189.0,0.0,8225.0
2001-12-11,185.0,183.0,185.0,183.0,0.0,5377.0
2001-12-12,190.0,183.0,186.5,189.25,0.0,15267.0
2001-12-13,189.25,183.75,186.5,189.2,0.0,11584.0
2001-12-14,184.0,180.0,182.0,180.0,0.0,25676.0
2001-12-17,181.25,175.0,177.5,176.0,0.0,13777.0
2001-12-18,180.0,175.0,177.5,175.1,0.0,128672.0
2001-12-19,182.0,175.0,178.5,180.0,0.0,17709.0
2001-12-20,181.0,173.18,176.5,181.0,0.0,198199.0
2001-12-21,177.0,172.5,174.5,174.0,0.0,20163.0
2001-12-24,177.0,172.0,174.5,172.0,0.0,6115.0
2001-12-25,174.5,174.5,174.5,174.5,0.0,0.0
2001-12-26,174.5,174.5,174.5,174.5,0.0,0.0
2001-12-27,177.0,172.0,174.5,176.0,0.0,4255.0
2001-12-28,172.6,172.5,174.5,172.6,0.0,1450.0
2001-12-31,177.0,172.6,174.5,173.0,0.0,1567.0
2002-01-01,174.5,174.5,174.5,174.5,0.0,0.0
2002-01-02,174.5,174.5,174.5,174.5,0.0,0.0
2002-01-03,180.75,176.0,178.5,176.4,0.0,45898.0
2002-01-04,186.0,179.0,183.0,185.75,0.0,9866.0
2002-01-07,187.0,179.0,182.5,186.0,0.0,22205.0
2002-01-08,185.8,179.0,182.5,185.8,0.0,11921.0
2002-01-09,182.0,176.0,178.0,182.0,0.0,21268.0
2002-01-10,176.0,173.0,175.0,176.0,0.0,6350.0
2002-01-11,173.5,172.5,174.5,173.0,0.0,17657.0
2002-01-14,175.4,165.0,169.0,172.5,0.0,42174.0
2002-01-15,172.0,165.7,168.5,172.0,0.0,7595.0
2002-01-16,170.0,162.0,166.0,166.0,0.0,22213.0
2002-01-17,163.0,163.0,163.0,163.0,0.0,1.0
2002-01-18,166.8,159.0,163.0,159.0,0.0,3158.0
2002-01-21,166.25,158.0,161.5,159.25,0.0,26120.0
2002-01-22,163.75,158.5,162.5,163.75,0.0,6800.0
2002-01-23,165.0,160.0,162.5,160.6,0.0,19638.0
2002-01-24,167.0,160.0,164.0,164.75,0.0,23842.0
2002-01-25,161.0,160.0,164.0,161.0,0.0,12602.0
2002-01-28,164.2,158.0,161.5,161.0,0.0,19675.0
2002-01-29,158.0,156.0,156.0,158.0,0.0,7655.0
2002-01-30,149.25,142.0,146.5,142.0,0.0,55507.0
2002-01-31,148.0,147.0,147.5,147.75,0.0,12881.0
2002-02-01,147.9,143.0,145.0,147.9,0.0,1028396.0
2002-02-04,144.5,135.0,137.0,142.5,0.0,44693.0
2002-02-05,140.0,130.0,132.5,139.25,0.0,9894.0
2002-02-06,132.6,125.0,127.0,132.6,0.0,19288.0
2002-02-07,128.0,125.0,126.5,126.0,0.0,21747.0
2002-02-08,128.0,120.0,123.0,125.0,0.0,35632.0
2002-02-11,126.0,120.0,124.0,126.0,0.0,85780.0
2002-02-12,136.0,126.0,132.5,128.0,0.0,97606.0
2002-02-13,135.0,132.0,132.5,134.5,0.0,29701.0
2002-02-14,133.0,132.0,132.5,132.0,0.0,14042.0
2002-02-15,133.0,132.0,132.5,132.0,0.0,14194.0
2002-02-18,135.0,132.1,133.5,133.0,0.0,88799.0
2002-02-19,135.0,132.0,133.5,134.7,0.0,14434.0
2002-02-20,134.0,132.0,133.0,132.0,0.0,8183.0
2002-02-21,134.0,132.0,133.0,134.0,0.0,9290.0
2002-02-22,133.3,128.0,131.0,132.0,0.0,7230.0
2002-02-25,134.0,128.0,131.0,128.0,0.0,41902.0
2002-02-26,133.5,130.0,131.5,133.5,0.0,12238.0
2002-02-27,133.5,133.5,131.5,133.5,0.0,1711.0
2002-02-28,129.5,129.0,131.5,129.5,0.0,4904.0
2002-03-01,133.5,129.0,131.5,129.5,0.0,11153.0
2002-03-04,137.0,130.0,133.5,133.5,0.0,34864.0
2002-03-05,143.0,133.6,141.0,133.6,0.0,50098.0
2002-03-06,143.0,139.0,141.0,139.0,0.0,8137.0
2002-03-07,143.0,139.0,141.0,143.0,0.0,29675.0
2002-03-08,140.0,139.0,141.0,139.0,0.0,6506.0
2002-03-11,143.0,140.0,141.5,142.5,0.0,24958.0
2002-03-12,142.0,140.0,141.0,140.5,0.0,22370.0
2002-03-13,142.0,137.0,139.5,140.0,0.0,27635.0
2002-03-14,141.5,137.0,139.5,138.0,0.0,58498.0
2002-03-15,137.6,137.0,138.5,137.5,0.0,29737.0
2002-03-18,139.25,130.0,133.0,134.0,0.0,194733.0
2002-03-19,135.0,129.0,132.0,130.0,0.0,20434.0
2002-03-20,135.2,128.0,132.0,135.0,0.0,9742.0
2002-03-21,134.0,127.0,131.0,134.0,0.0,29556.0
2002-03-22,135.0,127.0,131.0,127.0,0.0,30099.0
2002-03-25,135.0,127.0,131.0,127.7,0.0,12838.0
2002-03-26,135.0,127.0,130.0,134.0,0.0,28345.0
2002-03-27,128.0,127.0,130.0,127.75,0.0,8170.0
2002-03-28,132.25,126.7,129.5,132.0,0.0,27412.0
2002-03-29,129.5,129.5,129.5,129.5,0.0,0.0
2002-04-01,129.5,129.5,129.5,129.5,0.0,0.0
2002-04-02,132.25,125.0,128.5,132.25,0.0,48111.0
2002-04-03,130.0,120.0,125.0,123.0,0.0,224325.0
2002-04-04,126.0,120.0,126.5,126.0,0.0,146790.0
2002-04-05,130.0,121.0,127.5,129.0,0.0,44272.0
2002-04-08,131.0,125.5,129.0,129.25,0.0,116994.0
2002-04-09,131.5,128.0,130.0,131.0,0.0,10020.0
2002-04-10,132.0,128.0,130.5,132.0,0.0,8742.0
2002-04-11,132.0,128.0,130.5,132.0,0.0,773231.0
2002-04-12,131.0,129.0,130.0,129.15,0.0,29994.0
2002-04-15,130.0,129.0,129.5,129.0,0.0,59421.0
2002-04-16,137.0,128.8,134.0,129.0,0.0,40215.0
2002-04-17,137.0,134.0,135.5,135.7,0.0,45663.0
2002-04-18,137.0,134.0,135.5,137.0,0.0,26054.0
2002-04-19,136.7,135.0,135.5,136.7,0.0,25193.0
2002-04-22,137.0,134.0,135.5,134.3,0.0,40657.0
2002-04-23,137.0,134.0,135.5,134.0,0.0,22542.0
2002-04-24,137.0,131.0,134.0,137.0,0.0,27675.0
2002-04-25,134.0,127.8,131.5,131.75,0.0,20563.0
2002-04-26,133.0,127.0,130.5,127.0,0.0,12900.0
2002-04-29,135.0,126.0,130.5,127.0,0.0,40120.0
2002-04-30,132.0,126.7,129.5,126.75,0.0,8197.0
2002-05-01,128.0,127.0,130.0,127.0,0.0,12582.0
2002-05-02,131.5,127.0,129.5,127.0,0.0,33316.0
2002-05-03,131.4,127.0,129.5,127.0,0.0,83070.0
2002-05-06,129.5,129.5,129.5,129.5,0.0,0.0
2002-05-07,132.0,125.7,128.5,126.0,0.0,45744.0
2002-05-08,132.0,127.0,130.5,131.4,0.0,26570.0
2002-05-09,131.0,130.0,132.0,131.0,0.0,1758.0
2002-05-10,134.0,130.0,132.0,134.0,0.0,15183.0
2002-05-13,134.0,130.0,132.0,133.5,0.0,18632.0
2002-05-14,133.11,130.0,131.5,130.0,0.0,10182.0
2002-05-15,133.0,130.3,131.5,133.0,0.0,1450.0
2002-05-16,135.0,130.0,133.0,134.0,0.0,40101.0
2002-05-17,138.75,130.0,135.0,136.0,0.0,20260.0
2002-05-20,140.0,130.0,134.5,130.0,0.0,56733.0
2002-05-21,135.0,130.0,133.5,131.0,0.0,25583.0
2002-05-22,130.0,128.0,131.0,130.0,0.0,29888.0
2002-05-23,134.0,127.0,131.0,127.0,0.0,10088.0
2002-05-24,134.0,127.0,131.0,127.8,0.0,1786.0
2002-05-27,135.0,127.0,131.0,128.0,0.0,146086.0
2002-05-28,135.0,127.0,131.0,128.0,0.0,28608.0
2002-05-29,134.0,127.0,131.0,128.0,0.0,7275.0
2002-05-30,127.0,125.0,129.0,127.0,0.0,14442.0
2002-05-31,133.0,125.0,129.0,130.0,0.0,7204.0
2002-06-03,129.0,129.0,129.0,129.0,0.0,0.0
2002-06-04,129.0,129.0,129.0,129.0,0.0,0.0
2002-06-05,130.0,125.0,127.5,126.0,0.0,12654.0
2002-06-06,129.5,125.0,127.5,129.0,0.0,9492.0
2002-06-07,125.0,117.0,121.0,125.0,0.0,31435.0
2002-06-10,125.0,117.0,121.0,117.0,0.0,31788.0
2002-06-11,118.0,115.0,119.5,118.0,0.0,266137.0
2002-06-12,121.3,114.0,117.0,115.0,0.0,51617.0
2002-06-13,119.0,112.5,114.5,119.0,0.0,11095.0
2002-06-14,116.5,109.0,112.0,112.0,0.0,20624.0
2002-06-17,117.0,109.0,112.5,109.75,0.0,71377.0
2002-06-18,116.75,113.0,115.0,116.0,0.0,9539.0
2002-06-19,115.0,110.35,113.5,112.0,0.0,8218.0
2002-06-20,114.25,107.0,110.5,110.7,0.0,307320.0
2002-06-21,112.75,106.0,109.0,106.0,0.0,839.0
2002-06-24,109.0,104.0,107.0,109.0,0.0,10511.0
2002-06-25,112.0,103.0,108.0,104.7,0.0,63424.0
2002-06-26,107.0,98.0,101.5,104.25,0.0,16889.0
2002-06-27,106.75,101.0,104.5,106.75,0.0,11663.0
2002-06-28,107.0,100.0,101.5,107.0,0.0,35935.0
2002-07-01,105.0,98.0,101.5,104.0,0.0,6216.0
2002-07-02,101.25,98.0,100.0,99.0,0.0,4290.0
2002-07-03,100.0,98.0,99.5,98.0,0.0,178000.0
2002-07-04,101.0,98.25,99.5,98.5,0.0,45992.0
2002-07-05,101.0,98.3,99.5,98.3,0.0,37252.0
2002-07-08,101.0,98.0,99.5,100.75,0.0,529703.0
2002-07-09,99.5,99.5,99.5,99.5,0.0,425000.0
2002-07-10,100.0,96.75,99.0,100.0,0.0,6810.0
2002-07-11,99.5,93.0,95.0,99.5,0.0,25051.0
2002-07-12,96.5,90.0,93.0,93.0,0.0,8793.0
2002-07-15,95.0,91.23,92.5,91.23,0.0,45938.0
2002-07-16,93.0,85.0,86.5,90.5,0.0,283873.0
2002-07-17,88.0,87.0,87.5,88.0,0.0,15900.0
2002-07-18,94.0,86.0,90.5,86.0,0.0,9849.0
2002-07-19,93.0,86.25,89.5,87.0,0.0,5063.0
2002-07-22,90.0,83.0,86.5,84.0,0.0,24407.0
2002-07-23,85.5,79.75,82.0,82.5,0.0,28950.0
2002-07-24,82.25,79.0,81.0,82.25,0.0,7336.0
2002-07-25,83.0,82.0,84.0,82.25,0.0,23276.0
2002-07-26,85.0,82.25,83.5,83.0,0.0,15629.0
2002-07-29,89.0,82.25,85.0,89.0,0.0,20349.0
2002-07-30,87.75,85.25,86.5,86.75,0.0,13791.0
2002-07-31,91.5,85.75,88.5,89.0,0.0,27300.0
2002-08-01,91.0,85.75,87.5,85.75,0.0,22562.0
2002-08-02,89.5,86.0,88.0,86.5,0.0,10564.0
2002-08-05,89.0,83.0,85.0,89.0,0.0,23197.0
2002-08-06,83.5,80.0,82.0,83.5,0.0,285870.0
2002-08-07,84.0,80.5,82.0,84.0,0.0,552417.0
2002-08-08,84.0,81.0,83.0,81.0,0.0,5746.0
2002-08-09,83.6,80.5,82.0,80.5,0.0,7628.0
2002-08-12,83.5,80.0,79.0,83.5,0.0,475028.0
2002-08-13,79.075,77.0,79.0,78.0,0.0,36360.0
2002-08-14,79.75,77.0,78.5,77.3,0.0,2466.0
2002-08-15,79.75,78.5,80.0,79.75,0.0,37925.0
2002-08-16,81.5,78.5,79.5,81.0,0.0,4910.0
2002-08-19,81.0,78.0,79.5,78.25,0.0,10460.0
2002-08-20,80.7,78.25,79.5,80.7,0.0,1046985.0
2002-08-21,80.75,78.5,79.5,78.85,0.0,5220.0
2002-08-22,81.0,77.3,78.5,78.25,0.0,116528.0
2002-08-23,80.0,77.25,78.5,79.75,0.0,4349.0
2002-08-26,78.5,78.5,78.5,78.5,0.0,0.0
2002-08-27,81.0,78.0,79.5,79.6,0.0,230614.0
2002-08-28,78.0,78.0,78.0,78.0,0.0,1.0
2002-08-29,75.75,74.75,77.5,75.75,0.0,6813.0
2002-08-30,73.75,72.0,76.5,73.7,0.0,13700.0
2002-09-02,78.0,71.0,74.5,73.0,0.0,15633.0
2002-09-03,71.75,71.75,74.5,71.75,0.0,2446.0
2002-09-04,76.25,71.0,74.0,72.0,0.0,6219.0
2002-09-05,77.0,71.5,73.0,77.0,0.0,9270.0
2002-09-06,74.5,71.0,73.5,71.5,0.0,53780.0
2002-09-09,76.0,70.0,72.0,71.5,0.0,15234.0
2002-09-10,73.5,70.4,72.0,70.5,0.0,6228.0
2002-09-11,73.5,70.5,72.0,73.0,0.0,3315.0
2002-09-12,70.5,70.4,72.0,70.5,0.0,5119.0
2002-09-13,70.3,70.25,71.5,70.25,0.0,5408.0
2002-09-16,72.0,70.0,71.0,70.2,0.0,15828.0
2002-09-17,72.0,70.0,69.0,71.8,0.0,57267.0
2002-09-18,67.0,62.5,63.0,67.0,0.0,14942.0
2002-09-19,64.0,57.0,59.5,64.0,0.0,23860.0
2002-09-20,60.5,56.0,58.0,56.5,0.0,30573.0
2002-09-23,59.5,56.0,57.5,59.5,0.0,22186.0
2002-09-24,59.25,54.0,55.0,54.75,0.0,10512.0
2002-09-25,57.0,52.0,54.5,53.0,0.0,16240.0
2002-09-26,58.0,53.5,56.0,53.5,0.0,33210.0
2002-09-27,56.0,55.5,57.5,55.5,0.0,1153.0
2002-09-30,59.0,52.0,53.0,58.25,0.0,9067.0
2002-10-01,54.5,50.5,52.5,50.5,0.0,4427.0
2002-10-02,58.0,53.5,55.5,57.45,0.0,5765.0
2002-10-03,54.0,51.0,54.5,53.5,0.0,16275.0
2002-10-04,52.5,52.0,52.5,52.0,0.0,6915.0
2002-10-07,54.0,48.0,50.5,53.25,0.0,25092.0
2002-10-08,52.2,47.0,49.5,48.55,0.0,16489.0
2002-10-09,48.0,45.0,47.5,45.0,0.0,12573.0
2002-10-10,48.5,43.0,46.5,44.0,0.0,25739.0
2002-10-11,50.0,43.8,46.5,49.0,0.0,3427.0
2002-10-14,49.1,43.0,46.5,43.0,0.0,8932.0
2002-10-15,49.5,48.4,48.0,48.88,0.0,13094.0
2002-10-16,49.5,46.5,48.0,49.5,0.0,17229.0
2002-10-17,56.5,50.0,54.5,51.0,0.0,20476.0
2002-10-18,62.0,59.0,58.0,59.5,0.0,18945.0
2002-10-21,61.0,55.0,58.5,55.0,0.0,32083.0
2002-10-22,64.0,59.5,62.0,61.0,0.0,73643.0
2002-10-23,63.78,61.0,63.0,63.5,0.0,14644.0
2002-10-24,69.0,63.89,66.5,64.0,0.0,372034.0
2002-10-25,66.0,63.33,64.5,66.0,0.0,12137.0
2002-10-28,66.0,63.0,64.5,63.25,0.0,19174.0
2002-10-29,63.5,63.25,64.0,63.25,0.0,21100.0
2002-10-30,63.22,63.2,64.0,63.2,0.0,4244.0
2002-10-31,64.5,64.5,64.0,64.5,0.0,629.0
2002-11-01,64.0,64.0,64.0,64.0,0.0,0.0
2002-11-04,65.0,64.0,64.5,64.95,0.0,27258.0
2002-11-05,65.0,63.0,64.0,64.93,0.0,21469.0
2002-11-06,64.0,62.1,63.0,62.1,0.0,16752.0
2002-11-07,63.9,62.1,62.5,63.9,0.0,3089.0
2002-11-08,60.22,59.0,60.5,59.0,0.0,13593.0
2002-11-11,60.9,57.5,58.0,59.33,0.0,31120.0
2002-11-12,58.56,56.0,57.0,56.0,0.0,8229.0
2002-11-13,58.0,55.2,56.0,58.0,0.0,1628.0
2002-11-14,56.9,55.1,56.0,56.78,0.0,12413.0
2002-11-15,56.9,55.1,56.0,55.1,0.0,19552.0
2002-11-18,57.0,55.0,56.0,55.1,0.0,321819.0
2002-11-19,56.5,55.1,56.0,55.1,0.0,4739.0
2002-11-20,55.52,55.0,56.0,55.1,0.0,8496.0
2002-11-21,56.85,53.5,55.0,55.5,0.0,207560.0
2002-11-22,52.2,52.0,53.5,52.0,0.0,20705.0
2002-11-25,55.0,51.0,53.0,54.5,0.0,28296.0
2002-11-26,54.36,49.0,52.0,54.36,0.0,106043.0
2002-11-27,52.5,51.0,51.75,52.48,0.0,52310.0
2002-11-28,52.5,51.0,51.75,52.5,0.0,234521.0
2002-11-29,51.07,51.07,51.75,51.07,0.0,350.0
2002-12-02,52.43,50.0,51.0,52.43,0.0,123607.0
2002-12-03,52.5,50.0,51.25,50.12,0.0,662375.0
2002-12-04,52.38,50.12,51.25,51.975,0.0,4295.0
2002-12-05,52.38,50.275,51.25,51.85,0.0,19114.0
2002-12-06,52.4,50.0,51.25,50.5,0.0,33576.0
2002-12-09,52.5,50.0,51.5,50.5,0.0,14122.0
2002-12-10,52.0,50.5,51.5,51.0,0.0,2240.0
2002-12-11,52.5,50.5,51.5,50.75,0.0,152929.0
2002-12-12,51.0,50.5,51.5,51.0,0.0,10481.0
2002-12-13,52.0,50.5,51.5,50.5,0.0,15812.0
2002-12-16,52.5,50.5,51.5,50.5,0.0,218374.0
2002-12-17,51.5,50.5,51.25,51.0,0.0,53958.0
2002-12-18,50.5,50.0,50.25,50.0,0.0,16045.0
2002-12-19,49.5,48.0,49.0,49.5,0.0,117305.0
2002-12-20,49.0,46.0,48.25,48.5,0.0,594374.0
2002-12-23,49.0,47.5,48.25,48.5,0.0,52373.0
2002-12-24,48.0,47.5,48.25,48.0,0.0,4220.0
2002-12-25,48.25,48.25,48.25,48.25,0.0,0.0
2002-12-26,48.25,48.25,48.25,48.25,0.0,0.0
2002-12-27,48.5,48.5,48.25,48.5,0.0,500.0
2002-12-30,49.0,47.5,48.25,48.25,0.0,410589.0
2002-12-31,48.5,48.5,48.25,48.5,0.0,300.0
